date,createdAt,timestamp,context,value
2025-02-25 13:39:57.221000+05:30,1.74047E+12,1.74047E+12,{},0
2025-02-25 13:39:57.071000+05:30,1.74047E+12,1.74047E+12,{},393
2025-02-25 13:39:56.921000+05:30,1.74047E+12,1.74047E+12,{},0
2025-02-25 13:39:56.771000+05:30,1.74047E+12,1.74047E+12,{},544
2025-02-25 13:39:46.290000+05:30,1.74047E+12,1.74047E+12,{},48
2025-02-25 13:39:46.140000+05:30,1.74047E+12,1.74047E+12,{},377
2025-02-25 13:39:45.990000+05:30,1.74047E+12,1.74047E+12,{},80
2025-02-25 13:39:45.840000+05:30,1.74047E+12,1.74047E+12,{},41
2025-02-25 13:39:45.829000+05:30,1.74047E+12,1.74047E+12,{},3
2025-02-25 13:39:45.679000+05:30,1.74047E+12,1.74047E+12,{},217
2025-02-25 13:39:45.529000+05:30,1.74047E+12,1.74047E+12,{},89
2025-02-25 13:39:45.379000+05:30,1.74047E+12,1.74047E+12,{},195
2025-02-25 13:39:45.368000+05:30,1.74047E+12,1.74047E+12,{},0
2025-02-25 13:39:45.218000+05:30,1.74047E+12,1.74047E+12,{},366
2025-02-25 13:39:45.068000+05:30,1.74047E+12,1.74047E+12,{},48
2025-02-25 13:39:44.918000+05:30,1.74047E+12,1.74047E+12,{},124
2025-02-25 13:39:44.907000+05:30,1.74047E+12,1.74047E+12,{},0
2025-02-25 13:39:44.757000+05:30,1.74047E+12,1.74047E+12,{},371
2025-02-25 13:39:44.607000+05:30,1.74047E+12,1.74047E+12,{},17
2025-02-25 13:39:44.457000+05:30,1.74047E+12,1.74047E+12,{},297
2025-02-25 13:39:44.446000+05:30,1.74047E+12,1.74047E+12,{},0
2025-02-25 13:39:44.296000+05:30,1.74047E+12,1.74047E+12,{},406
2025-02-25 13:39:44.146000+05:30,1.74047E+12,1.74047E+12,{},0
2025-02-25 13:39:43.996000+05:30,1.74047E+12,1.74047E+12,{},321
2025-02-25 13:39:43.985000+05:30,1.74047E+12,1.74047E+12,{},0
2025-02-25 13:39:43.835000+05:30,1.74047E+12,1.74047E+12,{},495
2025-02-25 13:39:43.685000+05:30,1.74047E+12,1.74047E+12,{},0
2025-02-25 13:39:43.535000+05:30,1.74047E+12,1.74047E+12,{},267
2025-02-25 13:39:43.524000+05:30,1.74047E+12,1.74047E+12,{},0
2025-02-25 13:39:43.374000+05:30,1.74047E+12,1.74047E+12,{},348
2025-02-25 13:39:43.224000+05:30,1.74047E+12,1.74047E+12,{},0
2025-02-25 13:39:43.074000+05:30,1.74047E+12,1.74047E+12,{},402
2025-02-25 13:39:43.063000+05:30,1.74047E+12,1.74047E+12,{},0
2025-02-25 13:39:42.913000+05:30,1.74047E+12,1.74047E+12,{},505
2025-02-25 13:39:42.763000+05:30,1.74047E+12,1.74047E+12,{},0
2025-02-25 13:39:42.613000+05:30,1.74047E+12,1.74047E+12,{},269
2025-02-25 13:39:42.602000+05:30,1.74047E+12,1.74047E+12,{},0
2025-02-25 13:39:42.452000+05:30,1.74047E+12,1.74047E+12,{},448
2025-02-25 13:39:42.302000+05:30,1.74047E+12,1.74047E+12,{},0
2025-02-25 13:39:42.152000+05:30,1.74047E+12,1.74047E+12,{},574
2025-02-25 13:39:42.141000+05:30,1.74047E+12,1.74047E+12,{},0
2025-02-25 13:39:41.991000+05:30,1.74047E+12,1.74047E+12,{},688
2025-02-25 13:39:41.840000+05:30,1.74047E+12,1.74047E+12,{},0
2025-02-25 13:39:41.690000+05:30,1.74047E+12,1.74047E+12,{},656
2025-02-25 13:39:41.679000+05:30,1.74047E+12,1.74047E+12,{},0
2025-02-25 13:39:41.529000+05:30,1.74047E+12,1.74047E+12,{},755
2025-02-25 13:39:41.379000+05:30,1.74047E+12,1.74047E+12,{},0
2025-02-25 13:39:41.229000+05:30,1.74047E+12,1.74047E+12,{},691
2025-02-25 13:39:41.218000+05:30,1.74047E+12,1.74047E+12,{},0
2025-02-25 13:39:41.068000+05:30,1.74047E+12,1.74047E+12,{},720
2025-02-25 13:39:40.918000+05:30,1.74047E+12,1.74047E+12,{},0
2025-02-25 13:39:40.768000+05:30,1.74047E+12,1.74047E+12,{},723
2025-02-25 13:39:40.757000+05:30,1.74047E+12,1.74047E+12,{},0
2025-02-25 13:39:40.607000+05:30,1.74047E+12,1.74047E+12,{},817
2025-02-25 13:39:40.457000+05:30,1.74047E+12,1.74047E+12,{},0
2025-02-25 13:39:40.307000+05:30,1.74047E+12,1.74047E+12,{},667
2025-02-25 13:39:40.296000+05:30,1.74047E+12,1.74047E+12,{},0
2025-02-25 13:39:40.146000+05:30,1.74047E+12,1.74047E+12,{},685
2025-02-25 13:39:39.996000+05:30,1.74047E+12,1.74047E+12,{},0
2025-02-25 13:39:39.846000+05:30,1.74047E+12,1.74047E+12,{},951
2025-02-25 13:39:39.835000+05:30,1.74047E+12,1.74047E+12,{},0
2025-02-25 13:39:39.685000+05:30,1.74047E+12,1.74047E+12,{},970
2025-02-25 13:39:39.535000+05:30,1.74047E+12,1.74047E+12,{},0
2025-02-25 13:39:39.385000+05:30,1.74047E+12,1.74047E+12,{},778
2025-02-25 13:39:39.374000+05:30,1.74047E+12,1.74047E+12,{},0
2025-02-25 13:39:39.224000+05:30,1.74047E+12,1.74047E+12,{},882
2025-02-25 13:39:39.074000+05:30,1.74047E+12,1.74047E+12,{},0
2025-02-25 13:39:38.924000+05:30,1.74047E+12,1.74047E+12,{},952
2025-02-25 13:39:38.913000+05:30,1.74047E+12,1.74047E+12,{},0
2025-02-25 13:39:38.763000+05:30,1.74047E+12,1.74047E+12,{},905
2025-02-25 13:39:38.613000+05:30,1.74047E+12,1.74047E+12,{},0
2025-02-25 13:39:38.463000+05:30,1.74047E+12,1.74047E+12,{},848
2025-02-25 13:39:38.452000+05:30,1.74047E+12,1.74047E+12,{},0
2025-02-25 13:39:38.302000+05:30,1.74047E+12,1.74047E+12,{},890
2025-02-25 13:39:38.152000+05:30,1.74047E+12,1.74047E+12,{},0
2025-02-25 13:39:38.002000+05:30,1.74047E+12,1.74047E+12,{},870
2025-02-25 13:39:37.991000+05:30,1.74047E+12,1.74047E+12,{},0
2025-02-25 13:39:37.841000+05:30,1.74047E+12,1.74047E+12,{},845
2025-02-25 13:39:37.691000+05:30,1.74047E+12,1.74047E+12,{},0
2025-02-25 13:39:37.541000+05:30,1.74047E+12,1.74047E+12,{},896
2025-02-25 13:39:37.530000+05:30,1.74047E+12,1.74047E+12,{},0
2025-02-25 13:39:37.380000+05:30,1.74047E+12,1.74047E+12,{},925
2025-02-25 13:39:37.230000+05:30,1.74047E+12,1.74047E+12,{},0
2025-02-25 13:39:37.080000+05:30,1.74047E+12,1.74047E+12,{},809
2025-02-25 13:39:37.069000+05:30,1.74047E+12,1.74047E+12,{},0
2025-02-25 13:39:36.919000+05:30,1.74047E+12,1.74047E+12,{},759
2025-02-25 13:39:36.769000+05:30,1.74047E+12,1.74047E+12,{},0
2025-02-25 13:39:36.619000+05:30,1.74047E+12,1.74047E+12,{},944
2025-02-25 13:39:36.608000+05:30,1.74047E+12,1.74047E+12,{},0
2025-02-25 13:39:36.458000+05:30,1.74047E+12,1.74047E+12,{},875
2025-02-25 13:39:36.308000+05:30,1.74047E+12,1.74047E+12,{},0
2025-02-25 13:39:36.158000+05:30,1.74047E+12,1.74047E+12,{},807
2025-02-25 13:39:36.147000+05:30,1.74047E+12,1.74047E+12,{},0
2025-02-25 13:39:35.997000+05:30,1.74047E+12,1.74047E+12,{},809
2025-02-25 13:39:35.847000+05:30,1.74047E+12,1.74047E+12,{},0
2025-02-25 13:39:35.696000+05:30,1.74047E+12,1.74047E+12,{},816
2025-02-25 13:39:35.685000+05:30,1.74047E+12,1.74047E+12,{},0
2025-02-25 13:39:35.535000+05:30,1.74047E+12,1.74047E+12,{},683
2025-02-25 13:39:35.385000+05:30,1.74047E+12,1.74047E+12,{},0
2025-02-25 13:39:35.235000+05:30,1.74047E+12,1.74047E+12,{},796
2025-02-25 13:39:35.224000+05:30,1.74047E+12,1.74047E+12,{},0
2025-02-25 13:39:35.074000+05:30,1.74047E+12,1.74047E+12,{},673
2025-02-25 13:39:34.924000+05:30,1.74047E+12,1.74047E+12,{},0
2025-02-25 13:39:34.774000+05:30,1.74047E+12,1.74047E+12,{},764
2025-02-25 13:39:34.763000+05:30,1.74047E+12,1.74047E+12,{},0
2025-02-25 13:39:34.613000+05:30,1.74047E+12,1.74047E+12,{},590
2025-02-25 13:39:34.463000+05:30,1.74047E+12,1.74047E+12,{},0
2025-02-25 13:39:34.313000+05:30,1.74047E+12,1.74047E+12,{},822
2025-02-25 13:39:34.302000+05:30,1.74047E+12,1.74047E+12,{},0
2025-02-25 13:39:34.152000+05:30,1.74047E+12,1.74047E+12,{},705
2025-02-25 13:39:34.002000+05:30,1.74047E+12,1.74047E+12,{},0
2025-02-25 13:39:33.852000+05:30,1.74047E+12,1.74047E+12,{},659
2025-02-25 13:39:33.841000+05:30,1.74047E+12,1.74047E+12,{},0
2025-02-25 13:39:33.691000+05:30,1.74047E+12,1.74047E+12,{},582
2025-02-25 13:39:33.541000+05:30,1.74047E+12,1.74047E+12,{},0
2025-02-25 13:39:33.391000+05:30,1.74047E+12,1.74047E+12,{},795
2025-02-25 13:39:33.380000+05:30,1.74047E+12,1.74047E+12,{},0
2025-02-25 13:39:33.230000+05:30,1.74047E+12,1.74047E+12,{},623
2025-02-25 13:39:33.080000+05:30,1.74047E+12,1.74047E+12,{},0
2025-02-25 13:39:32.930000+05:30,1.74047E+12,1.74047E+12,{},713
2025-02-25 13:39:32.919000+05:30,1.74047E+12,1.74047E+12,{},0
2025-02-25 13:39:32.769000+05:30,1.74047E+12,1.74047E+12,{},598
2025-02-25 13:39:32.619000+05:30,1.74047E+12,1.74047E+12,{},0
2025-02-25 13:39:32.469000+05:30,1.74047E+12,1.74047E+12,{},726
2025-02-25 13:39:32.458000+05:30,1.74047E+12,1.74047E+12,{},0
2025-02-25 13:39:32.308000+05:30,1.74047E+12,1.74047E+12,{},592
2025-02-25 13:39:32.158000+05:30,1.74047E+12,1.74047E+12,{},0
2025-02-25 13:39:32.008000+05:30,1.74047E+12,1.74047E+12,{},715
2025-02-25 13:39:31.997000+05:30,1.74047E+12,1.74047E+12,{},0
2025-02-25 13:39:31.847000+05:30,1.74047E+12,1.74047E+12,{},624
2025-02-25 13:39:31.697000+05:30,1.74047E+12,1.74047E+12,{},0
2025-02-25 13:39:31.547000+05:30,1.74047E+12,1.74047E+12,{},656
2025-02-25 13:39:31.536000+05:30,1.74047E+12,1.74047E+12,{},0
2025-02-25 13:39:31.386000+05:30,1.74047E+12,1.74047E+12,{},511
2025-02-25 13:39:31.236000+05:30,1.74047E+12,1.74047E+12,{},0
2025-02-25 13:39:31.086000+05:30,1.74047E+12,1.74047E+12,{},773
2025-02-25 13:39:31.075000+05:30,1.74047E+12,1.74047E+12,{},0
2025-02-25 13:39:30.925000+05:30,1.74047E+12,1.74047E+12,{},626
2025-02-25 13:39:30.775000+05:30,1.74047E+12,1.74047E+12,{},0
2025-02-25 13:39:30.625000+05:30,1.74047E+12,1.74047E+12,{},624
2025-02-25 13:39:30.614000+05:30,1.74047E+12,1.74047E+12,{},0
2025-02-25 13:39:30.464000+05:30,1.74047E+12,1.74047E+12,{},555
2025-02-25 13:39:30.314000+05:30,1.74047E+12,1.74047E+12,{},0
2025-02-25 13:39:30.164000+05:30,1.74047E+12,1.74047E+12,{},692
2025-02-25 13:39:30.153000+05:30,1.74047E+12,1.74047E+12,{},0
2025-02-25 13:39:30.003000+05:30,1.74047E+12,1.74047E+12,{},571
2025-02-25 13:39:29.853000+05:30,1.74047E+12,1.74047E+12,{},0
2025-02-25 13:39:29.703000+05:30,1.74047E+12,1.74047E+12,{},686
2025-02-25 13:39:29.692000+05:30,1.74047E+12,1.74047E+12,{},0
2025-02-25 13:39:29.542000+05:30,1.74047E+12,1.74047E+12,{},564
2025-02-25 13:39:29.392000+05:30,1.74047E+12,1.74047E+12,{},0
2025-02-25 13:39:29.242000+05:30,1.74047E+12,1.74047E+12,{},698
2025-02-25 13:39:29.231000+05:30,1.74047E+12,1.74047E+12,{},0
2025-02-25 13:39:29.081000+05:30,1.74047E+12,1.74047E+12,{},531
2025-02-25 13:39:28.931000+05:30,1.74047E+12,1.74047E+12,{},0
2025-02-25 13:39:28.781000+05:30,1.74047E+12,1.74047E+12,{},699
2025-02-25 13:39:28.770000+05:30,1.74047E+12,1.74047E+12,{},0
2025-02-25 13:39:28.620000+05:30,1.74047E+12,1.74047E+12,{},619
2025-02-25 13:39:28.470000+05:30,1.74047E+12,1.74047E+12,{},0
2025-02-25 13:39:28.320000+05:30,1.74047E+12,1.74047E+12,{},630
2025-02-25 13:39:28.309000+05:30,1.74047E+12,1.74047E+12,{},0
2025-02-25 13:39:28.159000+05:30,1.74047E+12,1.74047E+12,{},511
2025-02-25 13:39:28.009000+05:30,1.74047E+12,1.74047E+12,{},0
2025-02-25 13:39:27.859000+05:30,1.74047E+12,1.74047E+12,{},752
2025-02-25 13:39:27.848000+05:30,1.74047E+12,1.74047E+12,{},0
2025-02-25 13:39:27.698000+05:30,1.74047E+12,1.74047E+12,{},585
2025-02-25 13:39:27.548000+05:30,1.74047E+12,1.74047E+12,{},0
2025-02-25 13:39:27.398000+05:30,1.74047E+12,1.74047E+12,{},661
2025-02-25 13:39:27.387000+05:30,1.74047E+12,1.74047E+12,{},0
2025-02-25 13:39:27.237000+05:30,1.74047E+12,1.74047E+12,{},549
2025-02-25 13:39:27.087000+05:30,1.74047E+12,1.74047E+12,{},0
2025-02-25 13:39:26.937000+05:30,1.74047E+12,1.74047E+12,{},704
2025-02-25 13:39:26.926000+05:30,1.74047E+12,1.74047E+12,{},0
2025-02-25 13:39:26.776000+05:30,1.74047E+12,1.74047E+12,{},548
2025-02-25 13:39:26.626000+05:30,1.74047E+12,1.74047E+12,{},0
2025-02-25 13:39:26.476000+05:30,1.74047E+12,1.74047E+12,{},675
2025-02-25 13:39:26.465000+05:30,1.74047E+12,1.74047E+12,{},0
2025-02-25 13:39:26.315000+05:30,1.74047E+12,1.74047E+12,{},550
2025-02-25 13:39:26.165000+05:30,1.74047E+12,1.74047E+12,{},0
2025-02-25 13:39:26.015000+05:30,1.74047E+12,1.74047E+12,{},661
2025-02-25 13:39:26.004000+05:30,1.74047E+12,1.74047E+12,{},0
2025-02-25 13:39:25.854000+05:30,1.74047E+12,1.74047E+12,{},484
2025-02-25 13:39:25.704000+05:30,1.74047E+12,1.74047E+12,{},0
2025-02-25 13:39:25.554000+05:30,1.74047E+12,1.74047E+12,{},752
2025-02-25 13:39:25.543000+05:30,1.74047E+12,1.74047E+12,{},0
2025-02-25 13:39:25.393000+05:30,1.74047E+12,1.74047E+12,{},617
2025-02-25 13:39:25.243000+05:30,1.74047E+12,1.74047E+12,{},0
2025-02-25 13:39:25.093000+05:30,1.74047E+12,1.74047E+12,{},623
2025-02-25 13:39:25.082000+05:30,1.74047E+12,1.74047E+12,{},0
2025-02-25 13:39:24.932000+05:30,1.74047E+12,1.74047E+12,{},511
2025-02-25 13:39:24.782000+05:30,1.74047E+12,1.74047E+12,{},0
2025-02-25 13:39:24.632000+05:30,1.74047E+12,1.74047E+12,{},729
2025-02-25 13:39:24.621000+05:30,1.74047E+12,1.74047E+12,{},0
2025-02-25 13:39:24.471000+05:30,1.74047E+12,1.74047E+12,{},575
2025-02-25 13:39:24.321000+05:30,1.74047E+12,1.74047E+12,{},0
2025-02-25 13:39:24.171000+05:30,1.74047E+12,1.74047E+12,{},666
2025-02-25 13:39:24.160000+05:30,1.74047E+12,1.74047E+12,{},0
2025-02-25 13:39:24.010000+05:30,1.74047E+12,1.74047E+12,{},543
2025-02-25 13:39:23.860000+05:30,1.74047E+12,1.74047E+12,{},0
2025-02-25 13:39:23.710000+05:30,1.74047E+12,1.74047E+12,{},636
2025-02-25 13:39:23.699000+05:30,1.74047E+12,1.74047E+12,{},0
2025-02-25 13:39:23.549000+05:30,1.74047E+12,1.74047E+12,{},500
2025-02-25 13:39:23.399000+05:30,1.74047E+12,1.74047E+12,{},0
2025-02-25 13:39:23.249000+05:30,1.74047E+12,1.74047E+12,{},653
2025-02-25 13:39:23.238000+05:30,1.74047E+12,1.74047E+12,{},0
2025-02-25 13:39:23.088000+05:30,1.74047E+12,1.74047E+12,{},551
2025-02-25 13:39:22.938000+05:30,1.74047E+12,1.74047E+12,{},0
2025-02-25 13:39:22.788000+05:30,1.74047E+12,1.74047E+12,{},581
2025-02-25 13:39:22.777000+05:30,1.74047E+12,1.74047E+12,{},0
2025-02-25 13:39:22.627000+05:30,1.74047E+12,1.74047E+12,{},436
2025-02-25 13:39:22.477000+05:30,1.74047E+12,1.74047E+12,{},0
2025-02-25 13:39:22.327000+05:30,1.74047E+12,1.74047E+12,{},688
2025-02-25 13:39:22.316000+05:30,1.74047E+12,1.74047E+12,{},0
2025-02-25 13:39:22.166000+05:30,1.74047E+12,1.74047E+12,{},528
2025-02-25 13:39:22.016000+05:30,1.74047E+12,1.74047E+12,{},0
2025-02-25 13:39:21.866000+05:30,1.74047E+12,1.74047E+12,{},558
2025-02-25 13:39:21.855000+05:30,1.74047E+12,1.74047E+12,{},0
2025-02-25 13:39:21.705000+05:30,1.74047E+12,1.74047E+12,{},463
2025-02-25 13:39:21.555000+05:30,1.74047E+12,1.74047E+12,{},0
2025-02-25 13:39:21.405000+05:30,1.74047E+12,1.74047E+12,{},607
2025-02-25 13:39:21.394000+05:30,1.74047E+12,1.74047E+12,{},0
2025-02-25 13:39:21.244000+05:30,1.74047E+12,1.74047E+12,{},455
2025-02-25 13:39:21.094000+05:30,1.74047E+12,1.74047E+12,{},0
2025-02-25 13:39:20.944000+05:30,1.74047E+12,1.74047E+12,{},555
2025-02-25 13:39:20.933000+05:30,1.74047E+12,1.74047E+12,{},0
2025-02-25 13:39:20.783000+05:30,1.74047E+12,1.74047E+12,{},433
2025-02-25 13:39:20.633000+05:30,1.74047E+12,1.74047E+12,{},0
2025-02-25 13:39:20.483000+05:30,1.74047E+12,1.74047E+12,{},511
2025-02-25 13:39:20.472000+05:30,1.74047E+12,1.74047E+12,{},0
2025-02-25 13:39:20.322000+05:30,1.74047E+12,1.74047E+12,{},370
2025-02-25 13:39:20.172000+05:30,1.74047E+12,1.74047E+12,{},0
2025-02-25 13:39:20.022000+05:30,1.74047E+12,1.74047E+12,{},528
2025-02-25 13:39:20.011000+05:30,1.74047E+12,1.74047E+12,{},0
2025-02-25 13:39:19.861000+05:30,1.74047E+12,1.74047E+12,{},434
2025-02-25 13:39:19.711000+05:30,1.74047E+12,1.74047E+12,{},0
2025-02-25 13:39:19.561000+05:30,1.74047E+12,1.74047E+12,{},416
2025-02-25 13:39:19.550000+05:30,1.74047E+12,1.74047E+12,{},0
2025-02-25 13:39:19.400000+05:30,1.74047E+12,1.74047E+12,{},317
2025-02-25 13:39:19.250000+05:30,1.74047E+12,1.74047E+12,{},0
2025-02-25 13:39:19.100000+05:30,1.74047E+12,1.74047E+12,{},531
2025-02-25 13:39:19.089000+05:30,1.74047E+12,1.74047E+12,{},0
2025-02-25 13:39:18.939000+05:30,1.74047E+12,1.74047E+12,{},375
2025-02-25 13:39:18.789000+05:30,1.74047E+12,1.74047E+12,{},0
2025-02-25 13:39:18.639000+05:30,1.74047E+12,1.74047E+12,{},416
2025-02-25 13:39:18.628000+05:30,1.74047E+12,1.74047E+12,{},0
2025-02-25 13:39:18.478000+05:30,1.74047E+12,1.74047E+12,{},319
2025-02-25 13:39:18.328000+05:30,1.74047E+12,1.74047E+12,{},0
2025-02-25 13:39:18.178000+05:30,1.74047E+12,1.74047E+12,{},464
2025-02-25 13:39:18.167000+05:30,1.74047E+12,1.74047E+12,{},0
2025-02-25 13:39:18.017000+05:30,1.74047E+12,1.74047E+12,{},320
2025-02-25 13:39:17.867000+05:30,1.74047E+12,1.74047E+12,{},0
2025-02-25 13:39:17.717000+05:30,1.74047E+12,1.74047E+12,{},461
2025-02-25 13:39:17.706000+05:30,1.74047E+12,1.74047E+12,{},0
2025-02-25 13:39:17.556000+05:30,1.74047E+12,1.74047E+12,{},336
2025-02-25 13:39:17.406000+05:30,1.74047E+12,1.74047E+12,{},0
2025-02-25 13:39:17.256000+05:30,1.74047E+12,1.74047E+12,{},458
2025-02-25 13:39:17.245000+05:30,1.74047E+12,1.74047E+12,{},0
2025-02-25 13:39:17.095000+05:30,1.74047E+12,1.74047E+12,{},267
2025-02-25 13:39:16.945000+05:30,1.74047E+12,1.74047E+12,{},0
2025-02-25 13:39:16.795000+05:30,1.74047E+12,1.74047E+12,{},496
2025-02-25 13:39:16.784000+05:30,1.74047E+12,1.74047E+12,{},0
2025-02-25 13:39:16.634000+05:30,1.74047E+12,1.74047E+12,{},354
2025-02-25 13:39:16.484000+05:30,1.74047E+12,1.74047E+12,{},0
2025-02-25 13:39:16.334000+05:30,1.74047E+12,1.74047E+12,{},400
2025-02-25 13:39:16.323000+05:30,1.74047E+12,1.74047E+12,{},0
2025-02-25 13:39:16.173000+05:30,1.74047E+12,1.74047E+12,{},223
2025-02-25 13:39:16.023000+05:30,1.74047E+12,1.74047E+12,{},0
2025-02-25 13:39:15.873000+05:30,1.74047E+12,1.74047E+12,{},333
2025-02-25 13:39:15.862000+05:30,1.74047E+12,1.74047E+12,{},0
2025-02-25 13:39:15.712000+05:30,1.74047E+12,1.74047E+12,{},187
2025-02-25 13:39:15.562000+05:30,1.74047E+12,1.74047E+12,{},0
2025-02-25 13:39:15.412000+05:30,1.74047E+12,1.74047E+12,{},304
2025-02-25 13:39:15.401000+05:30,1.74047E+12,1.74047E+12,{},0
2025-02-25 13:39:15.251000+05:30,1.74047E+12,1.74047E+12,{},227
2025-02-25 13:39:15.101000+05:30,1.74047E+12,1.74047E+12,{},0
2025-02-25 13:39:14.951000+05:30,1.74047E+12,1.74047E+12,{},426
2025-02-25 13:39:14.940000+05:30,1.74047E+12,1.74047E+12,{},0
2025-02-25 13:39:14.790000+05:30,1.74047E+12,1.74047E+12,{},242
2025-02-25 13:39:14.640000+05:30,1.74047E+12,1.74047E+12,{},0
2025-02-25 13:39:14.490000+05:30,1.74047E+12,1.74047E+12,{},437
2025-02-25 13:39:14.479000+05:30,1.74047E+12,1.74047E+12,{},0
2025-02-25 13:39:14.329000+05:30,1.74047E+12,1.74047E+12,{},274
2025-02-25 13:39:14.179000+05:30,1.74047E+12,1.74047E+12,{},0
2025-02-25 13:39:14.029000+05:30,1.74047E+12,1.74047E+12,{},383
2025-02-25 13:39:14.018000+05:30,1.74047E+12,1.74047E+12,{},45
2025-02-25 13:39:13.868000+05:30,1.74047E+12,1.74047E+12,{},186
2025-02-25 13:39:13.718000+05:30,1.74047E+12,1.74047E+12,{},0
2025-02-25 13:39:13.568000+05:30,1.74047E+12,1.74047E+12,{},428
2025-02-25 13:39:13.557000+05:30,1.74047E+12,1.74047E+12,{},0
2025-02-25 13:39:13.407000+05:30,1.74047E+12,1.74047E+12,{},241
2025-02-25 13:39:13.257000+05:30,1.74047E+12,1.74047E+12,{},0
2025-02-25 13:39:13.107000+05:30,1.74047E+12,1.74047E+12,{},287
2025-02-25 13:39:13.096000+05:30,1.74047E+12,1.74047E+12,{},159
2025-02-25 13:39:12.946000+05:30,1.74047E+12,1.74047E+12,{},174
2025-02-25 13:39:12.796000+05:30,1.74047E+12,1.74047E+12,{},0
2025-02-25 13:39:12.646000+05:30,1.74047E+12,1.74047E+12,{},358
2025-02-25 13:39:12.635000+05:30,1.74047E+12,1.74047E+12,{},36
2025-02-25 13:39:12.485000+05:30,1.74047E+12,1.74047E+12,{},153
2025-02-25 13:39:12.335000+05:30,1.74047E+12,1.74047E+12,{},241
2025-02-25 13:39:12.185000+05:30,1.74047E+12,1.74047E+12,{},288
2025-02-25 13:39:12.174000+05:30,1.74047E+12,1.74047E+12,{},382
2025-02-25 13:39:12.024000+05:30,1.74047E+12,1.74047E+12,{},113
2025-02-25 13:39:11.874000+05:30,1.74047E+12,1.74047E+12,{},144
2025-02-25 13:39:11.724000+05:30,1.74047E+12,1.74047E+12,{},250
2025-02-25 13:39:11.713000+05:30,1.74047E+12,1.74047E+12,{},365
2025-02-25 13:39:11.563000+05:30,1.74047E+12,1.74047E+12,{},97
2025-02-25 13:39:11.413000+05:30,1.74047E+12,1.74047E+12,{},219
2025-02-25 13:39:11.263000+05:30,1.74047E+12,1.74047E+12,{},219
2025-02-25 13:39:11.252000+05:30,1.74047E+12,1.74047E+12,{},370
2025-02-25 13:39:11.102000+05:30,1.74047E+12,1.74047E+12,{},120
2025-02-25 13:39:10.952000+05:30,1.74047E+12,1.74047E+12,{},300
2025-02-25 13:39:10.802000+05:30,1.74047E+12,1.74047E+12,{},176
2025-02-25 13:39:10.791000+05:30,1.74047E+12,1.74047E+12,{},506
2025-02-25 13:39:10.641000+05:30,1.74047E+12,1.74047E+12,{},38
2025-02-25 13:39:10.491000+05:30,1.74047E+12,1.74047E+12,{},206
2025-02-25 13:39:10.341000+05:30,1.74047E+12,1.74047E+12,{},222
2025-02-25 13:39:10.330000+05:30,1.74047E+12,1.74047E+12,{},342
2025-02-25 13:39:10.180000+05:30,1.74047E+12,1.74047E+12,{},64
2025-02-25 13:39:10.030000+05:30,1.74047E+12,1.74047E+12,{},397
2025-02-25 13:39:09.880000+05:30,1.74047E+12,1.74047E+12,{},128
2025-02-25 13:39:09.869000+05:30,1.74047E+12,1.74047E+12,{},569
2025-02-25 13:39:09.719000+05:30,1.74047E+12,1.74047E+12,{},27
2025-02-25 13:39:09.569000+05:30,1.74047E+12,1.74047E+12,{},252
2025-02-25 13:39:09.419000+05:30,1.74047E+12,1.74047E+12,{},112
2025-02-25 13:39:09.408000+05:30,1.74047E+12,1.74047E+12,{},464
2025-02-25 13:39:09.258000+05:30,1.74047E+12,1.74047E+12,{},13
2025-02-25 13:39:09.108000+05:30,1.74047E+12,1.74047E+12,{},410
2025-02-25 13:39:08.958000+05:30,1.74047E+12,1.74047E+12,{},102
2025-02-25 13:39:08.947000+05:30,1.74047E+12,1.74047E+12,{},565
2025-02-25 13:39:08.797000+05:30,1.74047E+12,1.74047E+12,{},0
2025-02-25 13:39:08.647000+05:30,1.74047E+12,1.74047E+12,{},359
2025-02-25 13:39:08.497000+05:30,1.74047E+12,1.74047E+12,{},85
2025-02-25 13:39:08.486000+05:30,1.74047E+12,1.74047E+12,{},592
2025-02-25 13:39:08.336000+05:30,1.74047E+12,1.74047E+12,{},0
2025-02-25 13:39:08.186000+05:30,1.74047E+12,1.74047E+12,{},418
2025-02-25 13:39:08.036000+05:30,1.74047E+12,1.74047E+12,{},90
2025-02-25 13:39:08.025000+05:30,1.74047E+12,1.74047E+12,{},533
2025-02-25 13:39:07.875000+05:30,1.74047E+12,1.74047E+12,{},0
2025-02-25 13:39:07.725000+05:30,1.74047E+12,1.74047E+12,{},537
2025-02-25 13:39:07.575000+05:30,1.74047E+12,1.74047E+12,{},41
2025-02-25 13:39:07.564000+05:30,1.74047E+12,1.74047E+12,{},705
2025-02-25 13:39:07.414000+05:30,1.74047E+12,1.74047E+12,{},0
2025-02-25 13:39:07.264000+05:30,1.74047E+12,1.74047E+12,{},409
2025-02-25 13:39:07.114000+05:30,1.74047E+12,1.74047E+12,{},107
2025-02-25 13:39:07.103000+05:30,1.74047E+12,1.74047E+12,{},551
2025-02-25 13:39:06.953000+05:30,1.74047E+12,1.74047E+12,{},0
2025-02-25 13:39:06.803000+05:30,1.74047E+12,1.74047E+12,{},614
2025-02-25 13:39:06.653000+05:30,1.74047E+12,1.74047E+12,{},64
2025-02-25 13:39:06.642000+05:30,1.74047E+12,1.74047E+12,{},725
2025-02-25 13:39:06.492000+05:30,1.74047E+12,1.74047E+12,{},0
2025-02-25 13:39:06.342000+05:30,1.74047E+12,1.74047E+12,{},480
2025-02-25 13:39:06.192000+05:30,1.74047E+12,1.74047E+12,{},48
2025-02-25 13:39:06.181000+05:30,1.74047E+12,1.74047E+12,{},652
2025-02-25 13:39:06.031000+05:30,1.74047E+12,1.74047E+12,{},0
2025-02-25 13:39:05.881000+05:30,1.74047E+12,1.74047E+12,{},607
2025-02-25 13:39:05.731000+05:30,1.74047E+12,1.74047E+12,{},32
2025-02-25 13:39:05.720000+05:30,1.74047E+12,1.74047E+12,{},720
2025-02-25 13:39:05.570000+05:30,1.74047E+12,1.74047E+12,{},0
2025-02-25 13:39:05.420000+05:30,1.74047E+12,1.74047E+12,{},619
2025-02-25 13:39:05.270000+05:30,1.74047E+12,1.74047E+12,{},35
2025-02-25 13:39:05.259000+05:30,1.74047E+12,1.74047E+12,{},784
2025-02-25 13:39:05.109000+05:30,1.74047E+12,1.74047E+12,{},0
2025-02-25 13:39:04.959000+05:30,1.74047E+12,1.74047E+12,{},583
2025-02-25 13:39:04.809000+05:30,1.74047E+12,1.74047E+12,{},50
2025-02-25 13:39:04.798000+05:30,1.74047E+12,1.74047E+12,{},654
2025-02-25 13:39:04.648000+05:30,1.74047E+12,1.74047E+12,{},0
2025-02-25 13:39:04.498000+05:30,1.74047E+12,1.74047E+12,{},728
2025-02-25 13:39:04.348000+05:30,1.74047E+12,1.74047E+12,{},0
2025-02-25 13:39:04.337000+05:30,1.74047E+12,1.74047E+12,{},843
2025-02-25 13:39:04.187000+05:30,1.74047E+12,1.74047E+12,{},0
2025-02-25 13:39:04.037000+05:30,1.74047E+12,1.74047E+12,{},576
2025-02-25 13:39:03.887000+05:30,1.74047E+12,1.74047E+12,{},0
2025-02-25 13:39:03.876000+05:30,1.74047E+12,1.74047E+12,{},708
2025-02-25 13:39:03.726000+05:30,1.74047E+12,1.74047E+12,{},0
2025-02-25 13:39:03.576000+05:30,1.74047E+12,1.74047E+12,{},782
2025-02-25 13:39:03.426000+05:30,1.74047E+12,1.74047E+12,{},0
2025-02-25 13:39:03.415000+05:30,1.74047E+12,1.74047E+12,{},823
2025-02-25 13:39:03.265000+05:30,1.74047E+12,1.74047E+12,{},0
2025-02-25 13:39:03.115000+05:30,1.74047E+12,1.74047E+12,{},643
2025-02-25 13:39:02.965000+05:30,1.74047E+12,1.74047E+12,{},0
2025-02-25 13:39:02.954000+05:30,1.74047E+12,1.74047E+12,{},757
2025-02-25 13:39:02.804000+05:30,1.74047E+12,1.74047E+12,{},0
2025-02-25 13:39:02.654000+05:30,1.74047E+12,1.74047E+12,{},731
2025-02-25 13:39:02.504000+05:30,1.74047E+12,1.74047E+12,{},0
2025-02-25 13:39:02.493000+05:30,1.74047E+12,1.74047E+12,{},762
2025-02-25 13:39:02.343000+05:30,1.74047E+12,1.74047E+12,{},0
2025-02-25 13:39:02.193000+05:30,1.74047E+12,1.74047E+12,{},754
2025-02-25 13:39:02.043000+05:30,1.74047E+12,1.74047E+12,{},0
2025-02-25 13:39:02.032000+05:30,1.74047E+12,1.74047E+12,{},886
2025-02-25 13:39:01.882000+05:30,1.74047E+12,1.74047E+12,{},0
2025-02-25 13:39:01.732000+05:30,1.74047E+12,1.74047E+12,{},666
2025-02-25 13:39:01.582000+05:30,1.74047E+12,1.74047E+12,{},0
2025-02-25 13:39:01.571000+05:30,1.74047E+12,1.74047E+12,{},747
2025-02-25 13:39:01.421000+05:30,1.74047E+12,1.74047E+12,{},0
2025-02-25 13:39:01.271000+05:30,1.74047E+12,1.74047E+12,{},775
2025-02-25 13:39:01.121000+05:30,1.74047E+12,1.74047E+12,{},0
2025-02-25 13:39:01.110000+05:30,1.74047E+12,1.74047E+12,{},866
2025-02-25 13:39:00.960000+05:30,1.74047E+12,1.74047E+12,{},0
2025-02-25 13:39:00.810000+05:30,1.74047E+12,1.74047E+12,{},591
2025-02-25 13:39:00.660000+05:30,1.74047E+12,1.74047E+12,{},0
2025-02-25 13:39:00.649000+05:30,1.74047E+12,1.74047E+12,{},735
2025-02-25 13:39:00.499000+05:30,1.74047E+12,1.74047E+12,{},0
2025-02-25 13:39:00.349000+05:30,1.74047E+12,1.74047E+12,{},832
2025-02-25 13:39:00.199000+05:30,1.74047E+12,1.74047E+12,{},0
2025-02-25 13:39:00.188000+05:30,1.74047E+12,1.74047E+12,{},865
2025-02-25 13:39:00.038000+05:30,1.74047E+12,1.74047E+12,{},0
2025-02-25 13:38:59.888000+05:30,1.74047E+12,1.74047E+12,{},752
2025-02-25 13:38:59.738000+05:30,1.74047E+12,1.74047E+12,{},0
2025-02-25 13:38:59.727000+05:30,1.74047E+12,1.74047E+12,{},846
2025-02-25 13:38:59.577000+05:30,1.74047E+12,1.74047E+12,{},0
2025-02-25 13:38:59.427000+05:30,1.74047E+12,1.74047E+12,{},784
2025-02-25 13:38:59.277000+05:30,1.74047E+12,1.74047E+12,{},0
2025-02-25 13:38:59.266000+05:30,1.74047E+12,1.74047E+12,{},790
2025-02-25 13:38:59.116000+05:30,1.74047E+12,1.74047E+12,{},0
2025-02-25 13:38:58.966000+05:30,1.74047E+12,1.74047E+12,{},862
2025-02-25 13:38:58.816000+05:30,1.74047E+12,1.74047E+12,{},0
2025-02-25 13:38:58.805000+05:30,1.74047E+12,1.74047E+12,{},912
2025-02-25 13:38:58.655000+05:30,1.74047E+12,1.74047E+12,{},0
2025-02-25 13:38:58.505000+05:30,1.74047E+12,1.74047E+12,{},732
2025-02-25 13:38:58.355000+05:30,1.74047E+12,1.74047E+12,{},0
2025-02-25 13:38:58.344000+05:30,1.74047E+12,1.74047E+12,{},764
2025-02-25 13:38:58.194000+05:30,1.74047E+12,1.74047E+12,{},0
2025-02-25 13:38:58.044000+05:30,1.74047E+12,1.74047E+12,{},889
2025-02-25 13:38:57.894000+05:30,1.74047E+12,1.74047E+12,{},0
2025-02-25 13:38:57.883000+05:30,1.74047E+12,1.74047E+12,{},909
2025-02-25 13:38:57.733000+05:30,1.74047E+12,1.74047E+12,{},0
2025-02-25 13:38:57.583000+05:30,1.74047E+12,1.74047E+12,{},762
2025-02-25 13:38:57.433000+05:30,1.74047E+12,1.74047E+12,{},0
2025-02-25 13:38:57.422000+05:30,1.74047E+12,1.74047E+12,{},800
2025-02-25 13:38:57.272000+05:30,1.74047E+12,1.74047E+12,{},0
2025-02-25 13:38:57.122000+05:30,1.74047E+12,1.74047E+12,{},863
2025-02-25 13:38:56.972000+05:30,1.74047E+12,1.74047E+12,{},0
2025-02-25 13:38:56.961000+05:30,1.74047E+12,1.74047E+12,{},822
2025-02-25 13:38:56.811000+05:30,1.74047E+12,1.74047E+12,{},0
2025-02-25 13:38:56.661000+05:30,1.74047E+12,1.74047E+12,{},782
2025-02-25 13:38:56.511000+05:30,1.74047E+12,1.74047E+12,{},0
2025-02-25 13:38:56.500000+05:30,1.74047E+12,1.74047E+12,{},863
2025-02-25 13:38:56.350000+05:30,1.74047E+12,1.74047E+12,{},0
2025-02-25 13:38:56.200000+05:30,1.74047E+12,1.74047E+12,{},816
2025-02-25 13:38:56.050000+05:30,1.74047E+12,1.74047E+12,{},0
2025-02-25 13:38:56.039000+05:30,1.74047E+12,1.74047E+12,{},794
2025-02-25 13:38:55.889000+05:30,1.74047E+12,1.74047E+12,{},0
2025-02-25 13:38:55.739000+05:30,1.74047E+12,1.74047E+12,{},906
2025-02-25 13:38:55.589000+05:30,1.74047E+12,1.74047E+12,{},0
2025-02-25 13:38:55.578000+05:30,1.74047E+12,1.74047E+12,{},928
2025-02-25 13:38:55.428000+05:30,1.74047E+12,1.74047E+12,{},0
2025-02-25 13:38:55.278000+05:30,1.74047E+12,1.74047E+12,{},719
2025-02-25 13:38:55.128000+05:30,1.74047E+12,1.74047E+12,{},0
2025-02-25 13:38:55.117000+05:30,1.74047E+12,1.74047E+12,{},786
2025-02-25 13:38:54.967000+05:30,1.74047E+12,1.74047E+12,{},0
2025-02-25 13:38:54.817000+05:30,1.74047E+12,1.74047E+12,{},742
2025-02-25 13:38:54.667000+05:30,1.74047E+12,1.74047E+12,{},0
2025-02-25 13:38:54.656000+05:30,1.74047E+12,1.74047E+12,{},752
2025-02-25 13:38:54.506000+05:30,1.74047E+12,1.74047E+12,{},0
2025-02-25 13:38:54.356000+05:30,1.74047E+12,1.74047E+12,{},559
2025-02-25 13:38:54.206000+05:30,1.74047E+12,1.74047E+12,{},0
2025-02-25 13:38:54.195000+05:30,1.74047E+12,1.74047E+12,{},677
2025-02-25 13:38:54.045000+05:30,1.74047E+12,1.74047E+12,{},0
2025-02-25 13:38:53.895000+05:30,1.74047E+12,1.74047E+12,{},673
2025-02-25 13:38:53.745000+05:30,1.74047E+12,1.74047E+12,{},0
2025-02-25 13:38:53.734000+05:30,1.74047E+12,1.74047E+12,{},671
2025-02-25 13:38:53.584000+05:30,1.74047E+12,1.74047E+12,{},0
2025-02-25 13:38:53.434000+05:30,1.74047E+12,1.74047E+12,{},706
2025-02-25 13:38:53.284000+05:30,1.74047E+12,1.74047E+12,{},0
2025-02-25 13:38:53.273000+05:30,1.74047E+12,1.74047E+12,{},751
2025-02-25 13:38:53.123000+05:30,1.74047E+12,1.74047E+12,{},0
2025-02-25 13:38:52.973000+05:30,1.74047E+12,1.74047E+12,{},624
2025-02-25 13:38:52.823000+05:30,1.74047E+12,1.74047E+12,{},0
2025-02-25 13:38:52.812000+05:30,1.74047E+12,1.74047E+12,{},642
2025-02-25 13:38:52.662000+05:30,1.74047E+12,1.74047E+12,{},0
2025-02-25 13:38:52.512000+05:30,1.74047E+12,1.74047E+12,{},770
2025-02-25 13:38:52.362000+05:30,1.74047E+12,1.74047E+12,{},0
2025-02-25 13:38:52.351000+05:30,1.74047E+12,1.74047E+12,{},767
2025-02-25 13:38:52.201000+05:30,1.74047E+12,1.74047E+12,{},0
2025-02-25 13:38:52.051000+05:30,1.74047E+12,1.74047E+12,{},558
2025-02-25 13:38:51.901000+05:30,1.74047E+12,1.74047E+12,{},0
2025-02-25 13:38:51.890000+05:30,1.74047E+12,1.74047E+12,{},617
2025-02-25 13:38:51.740000+05:30,1.74047E+12,1.74047E+12,{},0
2025-02-25 13:38:51.590000+05:30,1.74047E+12,1.74047E+12,{},695
2025-02-25 13:38:51.440000+05:30,1.74047E+12,1.74047E+12,{},0
2025-02-25 13:38:51.429000+05:30,1.74047E+12,1.74047E+12,{},672
2025-02-25 13:38:51.279000+05:30,1.74047E+12,1.74047E+12,{},0
2025-02-25 13:38:51.129000+05:30,1.74047E+12,1.74047E+12,{},638
2025-02-25 13:38:50.979000+05:30,1.74047E+12,1.74047E+12,{},0
2025-02-25 13:38:50.968000+05:30,1.74047E+12,1.74047E+12,{},686
2025-02-25 13:38:50.818000+05:30,1.74047E+12,1.74047E+12,{},0
2025-02-25 13:38:50.668000+05:30,1.74047E+12,1.74047E+12,{},602
2025-02-25 13:38:50.518000+05:30,1.74047E+12,1.74047E+12,{},0
2025-02-25 13:38:50.507000+05:30,1.74047E+12,1.74047E+12,{},621
2025-02-25 13:38:50.357000+05:30,1.74047E+12,1.74047E+12,{},0
2025-02-25 13:38:50.207000+05:30,1.74047E+12,1.74047E+12,{},685
2025-02-25 13:38:50.057000+05:30,1.74047E+12,1.74047E+12,{},0
2025-02-25 13:38:50.046000+05:30,1.74047E+12,1.74047E+12,{},731
2025-02-25 13:38:49.896000+05:30,1.74047E+12,1.74047E+12,{},0
2025-02-25 13:38:49.746000+05:30,1.74047E+12,1.74047E+12,{},567
2025-02-25 13:38:49.596000+05:30,1.74047E+12,1.74047E+12,{},0
2025-02-25 13:38:49.585000+05:30,1.74047E+12,1.74047E+12,{},601
2025-02-25 13:38:49.435000+05:30,1.74047E+12,1.74047E+12,{},0
2025-02-25 13:38:49.285000+05:30,1.74047E+12,1.74047E+12,{},740
2025-02-25 13:38:49.135000+05:30,1.74047E+12,1.74047E+12,{},0
2025-02-25 13:38:49.124000+05:30,1.74047E+12,1.74047E+12,{},693
2025-02-25 13:38:48.974000+05:30,1.74047E+12,1.74047E+12,{},0
2025-02-25 13:38:48.824000+05:30,1.74047E+12,1.74047E+12,{},649
2025-02-25 13:38:48.674000+05:30,1.74047E+12,1.74047E+12,{},0
2025-02-25 13:38:48.663000+05:30,1.74047E+12,1.74047E+12,{},634
2025-02-25 13:38:48.513000+05:30,1.74047E+12,1.74047E+12,{},0
2025-02-25 13:38:48.363000+05:30,1.74047E+12,1.74047E+12,{},702
2025-02-25 13:38:48.213000+05:30,1.74047E+12,1.74047E+12,{},0
2025-02-25 13:38:48.202000+05:30,1.74047E+12,1.74047E+12,{},648
2025-02-25 13:38:48.052000+05:30,1.74047E+12,1.74047E+12,{},0
2025-02-25 13:38:47.902000+05:30,1.74047E+12,1.74047E+12,{},675
2025-02-25 13:38:47.752000+05:30,1.74047E+12,1.74047E+12,{},0
2025-02-25 13:38:47.741000+05:30,1.74047E+12,1.74047E+12,{},656
2025-02-25 13:38:47.591000+05:30,1.74047E+12,1.74047E+12,{},0
2025-02-25 13:38:47.441000+05:30,1.74047E+12,1.74047E+12,{},647
2025-02-25 13:38:47.291000+05:30,1.74047E+12,1.74047E+12,{},0
2025-02-25 13:38:47.280000+05:30,1.74047E+12,1.74047E+12,{},571
2025-02-25 13:38:47.130000+05:30,1.74047E+12,1.74047E+12,{},0
2025-02-25 13:38:46.980000+05:30,1.74047E+12,1.74047E+12,{},736
2025-02-25 13:38:46.830000+05:30,1.74047E+12,1.74047E+12,{},0
2025-02-25 13:38:46.819000+05:30,1.74047E+12,1.74047E+12,{},711
2025-02-25 13:38:46.669000+05:30,1.74047E+12,1.74047E+12,{},0
2025-02-25 13:38:46.519000+05:30,1.74047E+12,1.74047E+12,{},511
2025-02-25 13:38:46.369000+05:30,1.74047E+12,1.74047E+12,{},0
2025-02-25 13:38:46.358000+05:30,1.74047E+12,1.74047E+12,{},526
2025-02-25 13:38:46.208000+05:30,1.74047E+12,1.74047E+12,{},0
2025-02-25 13:38:46.058000+05:30,1.74047E+12,1.74047E+12,{},667
2025-02-25 13:38:45.908000+05:30,1.74047E+12,1.74047E+12,{},0
2025-02-25 13:38:45.897000+05:30,1.74047E+12,1.74047E+12,{},592
2025-02-25 13:38:45.747000+05:30,1.74047E+12,1.74047E+12,{},0
2025-02-25 13:38:45.597000+05:30,1.74047E+12,1.74047E+12,{},611
2025-02-25 13:38:45.447000+05:30,1.74047E+12,1.74047E+12,{},0
2025-02-25 13:38:45.436000+05:30,1.74047E+12,1.74047E+12,{},593
2025-02-25 13:38:45.286000+05:30,1.74047E+12,1.74047E+12,{},0
2025-02-25 13:38:45.136000+05:30,1.74047E+12,1.74047E+12,{},628
2025-02-25 13:38:44.986000+05:30,1.74047E+12,1.74047E+12,{},0
2025-02-25 13:38:44.975000+05:30,1.74047E+12,1.74047E+12,{},563
2025-02-25 13:38:44.825000+05:30,1.74047E+12,1.74047E+12,{},0
2025-02-25 13:38:44.675000+05:30,1.74047E+12,1.74047E+12,{},629
2025-02-25 13:38:44.525000+05:30,1.74047E+12,1.74047E+12,{},0
2025-02-25 13:38:44.514000+05:30,1.74047E+12,1.74047E+12,{},597
2025-02-25 13:38:44.364000+05:30,1.74047E+12,1.74047E+12,{},0
2025-02-25 13:38:44.214000+05:30,1.74047E+12,1.74047E+12,{},563
2025-02-25 13:38:44.064000+05:30,1.74047E+12,1.74047E+12,{},0
2025-02-25 13:38:44.053000+05:30,1.74047E+12,1.74047E+12,{},464
2025-02-25 13:38:43.903000+05:30,1.74047E+12,1.74047E+12,{},0
2025-02-25 13:38:43.753000+05:30,1.74047E+12,1.74047E+12,{},659
2025-02-25 13:38:43.603000+05:30,1.74047E+12,1.74047E+12,{},0
2025-02-25 13:38:43.592000+05:30,1.74047E+12,1.74047E+12,{},613
2025-02-25 13:38:43.442000+05:30,1.74047E+12,1.74047E+12,{},0
2025-02-25 13:38:43.292000+05:30,1.74047E+12,1.74047E+12,{},538
2025-02-25 13:38:43.142000+05:30,1.74047E+12,1.74047E+12,{},0
2025-02-25 13:38:43.131000+05:30,1.74047E+12,1.74047E+12,{},499
2025-02-25 13:38:42.981000+05:30,1.74047E+12,1.74047E+12,{},0
2025-02-25 13:38:42.831000+05:30,1.74047E+12,1.74047E+12,{},613
2025-02-25 13:38:42.681000+05:30,1.74047E+12,1.74047E+12,{},0
2025-02-25 13:38:42.670000+05:30,1.74047E+12,1.74047E+12,{},509
2025-02-25 13:38:42.520000+05:30,1.74047E+12,1.74047E+12,{},0
2025-02-25 13:38:42.370000+05:30,1.74047E+12,1.74047E+12,{},577
2025-02-25 13:38:42.220000+05:30,1.74047E+12,1.74047E+12,{},0
2025-02-25 13:38:42.209000+05:30,1.74047E+12,1.74047E+12,{},511
2025-02-25 13:38:42.059000+05:30,1.74047E+12,1.74047E+12,{},0
2025-02-25 13:38:41.909000+05:30,1.74047E+12,1.74047E+12,{},573
2025-02-25 13:38:41.759000+05:30,1.74047E+12,1.74047E+12,{},0
2025-02-25 13:38:41.748000+05:30,1.74047E+12,1.74047E+12,{},486
2025-02-25 13:38:41.598000+05:30,1.74047E+12,1.74047E+12,{},0
2025-02-25 13:38:41.448000+05:30,1.74047E+12,1.74047E+12,{},578
2025-02-25 13:38:41.298000+05:30,1.74047E+12,1.74047E+12,{},0
2025-02-25 13:38:41.287000+05:30,1.74047E+12,1.74047E+12,{},551
2025-02-25 13:38:41.137000+05:30,1.74047E+12,1.74047E+12,{},0
2025-02-25 13:38:40.987000+05:30,1.74047E+12,1.74047E+12,{},472
2025-02-25 13:38:40.837000+05:30,1.74047E+12,1.74047E+12,{},0
2025-02-25 13:38:40.826000+05:30,1.74047E+12,1.74047E+12,{},408
2025-02-25 13:38:40.676000+05:30,1.74047E+12,1.74047E+12,{},0
2025-02-25 13:38:40.526000+05:30,1.74047E+12,1.74047E+12,{},613
2025-02-25 13:38:40.376000+05:30,1.74047E+12,1.74047E+12,{},0
2025-02-25 13:38:40.365000+05:30,1.74047E+12,1.74047E+12,{},491
2025-02-25 13:38:40.215000+05:30,1.74047E+12,1.74047E+12,{},0
2025-02-25 13:38:40.065000+05:30,1.74047E+12,1.74047E+12,{},502
2025-02-25 13:38:39.915000+05:30,1.74047E+12,1.74047E+12,{},0
2025-02-25 13:38:39.904000+05:30,1.74047E+12,1.74047E+12,{},449
2025-02-25 13:38:39.754000+05:30,1.74047E+12,1.74047E+12,{},0
2025-02-25 13:38:39.604000+05:30,1.74047E+12,1.74047E+12,{},535
2025-02-25 13:38:39.454000+05:30,1.74047E+12,1.74047E+12,{},0
2025-02-25 13:38:39.443000+05:30,1.74047E+12,1.74047E+12,{},433
2025-02-25 13:38:39.293000+05:30,1.74047E+12,1.74047E+12,{},0
2025-02-25 13:38:39.143000+05:30,1.74047E+12,1.74047E+12,{},503
2025-02-25 13:38:38.993000+05:30,1.74047E+12,1.74047E+12,{},0
2025-02-25 13:38:38.982000+05:30,1.74047E+12,1.74047E+12,{},401
2025-02-25 13:38:38.832000+05:30,1.74047E+12,1.74047E+12,{},0
2025-02-25 13:38:38.682000+05:30,1.74047E+12,1.74047E+12,{},489
2025-02-25 13:38:38.532000+05:30,1.74047E+12,1.74047E+12,{},0
2025-02-25 13:38:38.521000+05:30,1.74047E+12,1.74047E+12,{},350
2025-02-25 13:38:38.371000+05:30,1.74047E+12,1.74047E+12,{},0
2025-02-25 13:38:38.221000+05:30,1.74047E+12,1.74047E+12,{},535
2025-02-25 13:38:38.071000+05:30,1.74047E+12,1.74047E+12,{},0
2025-02-25 13:38:38.060000+05:30,1.74047E+12,1.74047E+12,{},436
2025-02-25 13:38:37.910000+05:30,1.74047E+12,1.74047E+12,{},0
2025-02-25 13:38:37.760000+05:30,1.74047E+12,1.74047E+12,{},402
2025-02-25 13:38:37.610000+05:30,1.74047E+12,1.74047E+12,{},0
2025-02-25 13:38:37.599000+05:30,1.74047E+12,1.74047E+12,{},320
2025-02-25 13:38:37.449000+05:30,1.74047E+12,1.74047E+12,{},0
2025-02-25 13:38:37.299000+05:30,1.74047E+12,1.74047E+12,{},501
2025-02-25 13:38:37.149000+05:30,1.74047E+12,1.74047E+12,{},0
2025-02-25 13:38:37.138000+05:30,1.74047E+12,1.74047E+12,{},309
2025-02-25 13:38:36.988000+05:30,1.74047E+12,1.74047E+12,{},0
2025-02-25 13:38:36.838000+05:30,1.74047E+12,1.74047E+12,{},423
2025-02-25 13:38:36.688000+05:30,1.74047E+12,1.74047E+12,{},0
2025-02-25 13:38:36.677000+05:30,1.74047E+12,1.74047E+12,{},291
2025-02-25 13:38:36.527000+05:30,1.74047E+12,1.74047E+12,{},0
2025-02-25 13:38:36.377000+05:30,1.74047E+12,1.74047E+12,{},416
2025-02-25 13:38:36.227000+05:30,1.74047E+12,1.74047E+12,{},0
2025-02-25 13:38:36.216000+05:30,1.74047E+12,1.74047E+12,{},273
2025-02-25 13:38:36.066000+05:30,1.74047E+12,1.74047E+12,{},0
2025-02-25 13:38:35.916000+05:30,1.74047E+12,1.74047E+12,{},420
2025-02-25 13:38:35.766000+05:30,1.74047E+12,1.74047E+12,{},0
2025-02-25 13:38:35.755000+05:30,1.74047E+12,1.74047E+12,{},322
2025-02-25 13:38:35.605000+05:30,1.74047E+12,1.74047E+12,{},0
2025-02-25 13:38:35.455000+05:30,1.74047E+12,1.74047E+12,{},369
2025-02-25 13:38:35.305000+05:30,1.74047E+12,1.74047E+12,{},0
2025-02-25 13:38:35.294000+05:30,1.74047E+12,1.74047E+12,{},224
2025-02-25 13:38:35.144000+05:30,1.74047E+12,1.74047E+12,{},0
2025-02-25 13:38:34.994000+05:30,1.74047E+12,1.74047E+12,{},449
2025-02-25 13:38:34.844000+05:30,1.74047E+12,1.74047E+12,{},0
2025-02-25 13:38:34.833000+05:30,1.74047E+12,1.74047E+12,{},309
2025-02-25 13:38:34.683000+05:30,1.74047E+12,1.74047E+12,{},0
2025-02-25 13:38:34.533000+05:30,1.74047E+12,1.74047E+12,{},321
2025-02-25 13:38:34.383000+05:30,1.74047E+12,1.74047E+12,{},0
2025-02-25 13:38:34.372000+05:30,1.74047E+12,1.74047E+12,{},240
2025-02-25 13:38:34.222000+05:30,1.74047E+12,1.74047E+12,{},0
2025-02-25 13:38:34.072000+05:30,1.74047E+12,1.74047E+12,{},357
2025-02-25 13:38:33.922000+05:30,1.74047E+12,1.74047E+12,{},0
2025-02-25 13:38:33.911000+05:30,1.74047E+12,1.74047E+12,{},229
2025-02-25 13:38:33.761000+05:30,1.74047E+12,1.74047E+12,{},0
2025-02-25 13:38:33.611000+05:30,1.74047E+12,1.74047E+12,{},310
2025-02-25 13:38:33.461000+05:30,1.74047E+12,1.74047E+12,{},0
2025-02-25 13:38:33.450000+05:30,1.74047E+12,1.74047E+12,{},201
2025-02-25 13:38:33.300000+05:30,1.74047E+12,1.74047E+12,{},0
2025-02-25 13:38:33.150000+05:30,1.74047E+12,1.74047E+12,{},305
2025-02-25 13:38:33+05:30,1.74047E+12,1.74047E+12,{},0
2025-02-25 13:38:32.989000+05:30,1.74047E+12,1.74047E+12,{},189
2025-02-25 13:38:32.839000+05:30,1.74047E+12,1.74047E+12,{},0
2025-02-25 13:38:32.689000+05:30,1.74047E+12,1.74047E+12,{},287
2025-02-25 13:38:32.539000+05:30,1.74047E+12,1.74047E+12,{},0
2025-02-25 13:38:32.528000+05:30,1.74047E+12,1.74047E+12,{},223
2025-02-25 13:38:32.378000+05:30,1.74047E+12,1.74047E+12,{},0
2025-02-25 13:38:32.228000+05:30,1.74047E+12,1.74047E+12,{},224
2025-02-25 13:38:32.078000+05:30,1.74047E+12,1.74047E+12,{},0
2025-02-25 13:38:32.067000+05:30,1.74047E+12,1.74047E+12,{},135
2025-02-25 13:38:31.917000+05:30,1.74047E+12,1.74047E+12,{},0
2025-02-25 13:38:31.767000+05:30,1.74047E+12,1.74047E+12,{},300
2025-02-25 13:38:31.617000+05:30,1.74047E+12,1.74047E+12,{},0
2025-02-25 13:38:31.606000+05:30,1.74047E+12,1.74047E+12,{},173
2025-02-25 13:38:31.456000+05:30,1.74047E+12,1.74047E+12,{},48
2025-02-25 13:38:31.306000+05:30,1.74047E+12,1.74047E+12,{},208
2025-02-25 13:38:31.156000+05:30,1.74047E+12,1.74047E+12,{},0
2025-02-25 13:38:31.145000+05:30,1.74047E+12,1.74047E+12,{},133
2025-02-25 13:38:30.995000+05:30,1.74047E+12,1.74047E+12,{},0
2025-02-25 13:38:30.845000+05:30,1.74047E+12,1.74047E+12,{},215
2025-02-25 13:38:30.695000+05:30,1.74047E+12,1.74047E+12,{},0
2025-02-25 13:38:30.684000+05:30,1.74047E+12,1.74047E+12,{},126
2025-02-25 13:38:30.534000+05:30,1.74047E+12,1.74047E+12,{},80
2025-02-25 13:38:30.384000+05:30,1.74047E+12,1.74047E+12,{},193
2025-02-25 13:38:30.234000+05:30,1.74047E+12,1.74047E+12,{},0
2025-02-25 13:38:30.223000+05:30,1.74047E+12,1.74047E+12,{},112
2025-02-25 13:38:30.073000+05:30,1.74047E+12,1.74047E+12,{},0
2025-02-25 13:38:29.923000+05:30,1.74047E+12,1.74047E+12,{},176
2025-02-25 13:38:29.773000+05:30,1.74047E+12,1.74047E+12,{},0
2025-02-25 13:38:29.762000+05:30,1.74047E+12,1.74047E+12,{},76
2025-02-25 13:38:29.612000+05:30,1.74047E+12,1.74047E+12,{},50
2025-02-25 13:38:29.462000+05:30,1.74047E+12,1.74047E+12,{},189
2025-02-25 13:38:29.312000+05:30,1.74047E+12,1.74047E+12,{},0
2025-02-25 13:38:29.301000+05:30,1.74047E+12,1.74047E+12,{},128
2025-02-25 13:38:29.151000+05:30,1.74047E+12,1.74047E+12,{},144
2025-02-25 13:38:29.001000+05:30,1.74047E+12,1.74047E+12,{},109
2025-02-25 13:38:28.851000+05:30,1.74047E+12,1.74047E+12,{},0
2025-02-25 13:38:28.840000+05:30,1.74047E+12,1.74047E+12,{},54
2025-02-25 13:38:28.690000+05:30,1.74047E+12,1.74047E+12,{},48
2025-02-25 13:38:28.540000+05:30,1.74047E+12,1.74047E+12,{},167
2025-02-25 13:38:28.390000+05:30,1.74047E+12,1.74047E+12,{},0
2025-02-25 13:38:28.379000+05:30,1.74047E+12,1.74047E+12,{},64
2025-02-25 13:38:28.229000+05:30,1.74047E+12,1.74047E+12,{},247
2025-02-25 13:38:28.079000+05:30,1.74047E+12,1.74047E+12,{},112
2025-02-25 13:38:27.929000+05:30,1.74047E+12,1.74047E+12,{},0
2025-02-25 13:38:27.918000+05:30,1.74047E+12,1.74047E+12,{},36
2025-02-25 13:38:27.768000+05:30,1.74047E+12,1.74047E+12,{},108
2025-02-25 13:38:27.618000+05:30,1.74047E+12,1.74047E+12,{},112
2025-02-25 13:38:27.468000+05:30,1.74047E+12,1.74047E+12,{},15
2025-02-25 13:38:27.457000+05:30,1.74047E+12,1.74047E+12,{},30
2025-02-25 13:38:27.307000+05:30,1.74047E+12,1.74047E+12,{},260
2025-02-25 13:38:27.157000+05:30,1.74047E+12,1.74047E+12,{},101
2025-02-25 13:38:27.007000+05:30,1.74047E+12,1.74047E+12,{},0
2025-02-25 13:38:26.996000+05:30,1.74047E+12,1.74047E+12,{},18
2025-02-25 13:38:26.846000+05:30,1.74047E+12,1.74047E+12,{},240
2025-02-25 13:38:26.696000+05:30,1.74047E+12,1.74047E+12,{},81
2025-02-25 13:38:26.546000+05:30,1.74047E+12,1.74047E+12,{},0
2025-02-25 13:38:26.535000+05:30,1.74047E+12,1.74047E+12,{},0
2025-02-25 13:38:26.385000+05:30,1.74047E+12,1.74047E+12,{},225
2025-02-25 13:38:26.235000+05:30,1.74047E+12,1.74047E+12,{},111
2025-02-25 13:38:26.085000+05:30,1.74047E+12,1.74047E+12,{},39
2025-02-25 13:38:26.074000+05:30,1.74047E+12,1.74047E+12,{},13
2025-02-25 13:38:25.924000+05:30,1.74047E+12,1.74047E+12,{},366
2025-02-25 13:38:25.774000+05:30,1.74047E+12,1.74047E+12,{},37
2025-02-25 13:38:25.624000+05:30,1.74047E+12,1.74047E+12,{},0
2025-02-25 13:38:25.613000+05:30,1.74047E+12,1.74047E+12,{},0
2025-02-25 13:38:25.463000+05:30,1.74047E+12,1.74047E+12,{},230
2025-02-25 13:38:25.313000+05:30,1.74047E+12,1.74047E+12,{},59
2025-02-25 13:38:25.163000+05:30,1.74047E+12,1.74047E+12,{},208
2025-02-25 13:38:25.152000+05:30,1.74047E+12,1.74047E+12,{},0
2025-02-25 13:38:25.002000+05:30,1.74047E+12,1.74047E+12,{},415
2025-02-25 13:38:24.852000+05:30,1.74047E+12,1.74047E+12,{},33
2025-02-25 13:38:24.702000+05:30,1.74047E+12,1.74047E+12,{},0
2025-02-25 13:38:24.691000+05:30,1.74047E+12,1.74047E+12,{},0
2025-02-25 13:38:24.541000+05:30,1.74047E+12,1.74047E+12,{},304
2025-02-25 13:38:24.391000+05:30,1.74047E+12,1.74047E+12,{},16
2025-02-25 13:38:24.241000+05:30,1.74047E+12,1.74047E+12,{},144
2025-02-25 13:38:24.230000+05:30,1.74047E+12,1.74047E+12,{},0
2025-02-25 13:38:24.080000+05:30,1.74047E+12,1.74047E+12,{},370
2025-02-25 13:38:23.930000+05:30,1.74047E+12,1.74047E+12,{},7
2025-02-25 13:38:23.780000+05:30,1.74047E+12,1.74047E+12,{},133
2025-02-25 13:38:23.769000+05:30,1.74047E+12,1.74047E+12,{},0
2025-02-25 13:38:23.619000+05:30,1.74047E+12,1.74047E+12,{},419
2025-02-25 13:38:23.469000+05:30,1.74047E+12,1.74047E+12,{},0
2025-02-25 13:38:23.319000+05:30,1.74047E+12,1.74047E+12,{},176
2025-02-25 13:38:23.308000+05:30,1.74047E+12,1.74047E+12,{},0
2025-02-25 13:38:23.158000+05:30,1.74047E+12,1.74047E+12,{},320
2025-02-25 13:38:23.008000+05:30,1.74047E+12,1.74047E+12,{},16
2025-02-25 13:38:22.858000+05:30,1.74047E+12,1.74047E+12,{},219
2025-02-25 13:38:22.847000+05:30,1.74047E+12,1.74047E+12,{},0
2025-02-25 13:38:22.697000+05:30,1.74047E+12,1.74047E+12,{},495
2025-02-25 13:38:22.547000+05:30,1.74047E+12,1.74047E+12,{},0
2025-02-25 13:38:22.397000+05:30,1.74047E+12,1.74047E+12,{},80
2025-02-25 13:38:22.386000+05:30,1.74047E+12,1.74047E+12,{},0
2025-02-25 13:38:22.236000+05:30,1.74047E+12,1.74047E+12,{},338
2025-02-25 13:38:22.086000+05:30,1.74047E+12,1.74047E+12,{},0
2025-02-25 13:38:21.936000+05:30,1.74047E+12,1.74047E+12,{},304
2025-02-25 13:38:21.925000+05:30,1.74047E+12,1.74047E+12,{},0
2025-02-25 13:38:21.775000+05:30,1.74047E+12,1.74047E+12,{},496
2025-02-25 13:38:21.625000+05:30,1.74047E+12,1.74047E+12,{},0
2025-02-25 13:38:21.475000+05:30,1.74047E+12,1.74047E+12,{},198
2025-02-25 13:38:21.464000+05:30,1.74047E+12,1.74047E+12,{},0
2025-02-25 13:38:21.314000+05:30,1.74047E+12,1.74047E+12,{},308
2025-02-25 13:38:21.164000+05:30,1.74047E+12,1.74047E+12,{},0
2025-02-25 13:38:21.014000+05:30,1.74047E+12,1.74047E+12,{},162
2025-02-25 13:38:21.003000+05:30,1.74047E+12,1.74047E+12,{},0
2025-02-25 13:38:20.853000+05:30,1.74047E+12,1.74047E+12,{},421
2025-02-25 13:38:20.703000+05:30,1.74047E+12,1.74047E+12,{},0
2025-02-25 13:38:20.553000+05:30,1.74047E+12,1.74047E+12,{},223
2025-02-25 13:38:20.542000+05:30,1.74047E+12,1.74047E+12,{},0
2025-02-25 13:38:20.392000+05:30,1.74047E+12,1.74047E+12,{},525
2025-02-25 13:38:20.242000+05:30,1.74047E+12,1.74047E+12,{},0
2025-02-25 13:38:20.092000+05:30,1.74047E+12,1.74047E+12,{},197
2025-02-25 13:38:20.081000+05:30,1.74047E+12,1.74047E+12,{},0
2025-02-25 13:38:19.931000+05:30,1.74047E+12,1.74047E+12,{},382
2025-02-25 13:38:19.781000+05:30,1.74047E+12,1.74047E+12,{},0
2025-02-25 13:38:19.631000+05:30,1.74047E+12,1.74047E+12,{},270
2025-02-25 13:38:19.620000+05:30,1.74047E+12,1.74047E+12,{},0
2025-02-25 13:38:19.470000+05:30,1.74047E+12,1.74047E+12,{},456
2025-02-25 13:38:19.320000+05:30,1.74047E+12,1.74047E+12,{},0
2025-02-25 13:38:19.170000+05:30,1.74047E+12,1.74047E+12,{},139
2025-02-25 13:38:19.159000+05:30,1.74047E+12,1.74047E+12,{},0
2025-02-25 13:38:19.009000+05:30,1.74047E+12,1.74047E+12,{},400
2025-02-25 13:38:18.859000+05:30,1.74047E+12,1.74047E+12,{},0
2025-02-25 13:38:18.709000+05:30,1.74047E+12,1.74047E+12,{},279
2025-02-25 13:38:18.698000+05:30,1.74047E+12,1.74047E+12,{},0
2025-02-25 13:38:18.548000+05:30,1.74047E+12,1.74047E+12,{},416
2025-02-25 13:38:18.398000+05:30,1.74047E+12,1.74047E+12,{},0
2025-02-25 13:38:18.248000+05:30,1.74047E+12,1.74047E+12,{},148
2025-02-25 13:38:18.237000+05:30,1.74047E+12,1.74047E+12,{},0
2025-02-25 13:38:18.087000+05:30,1.74047E+12,1.74047E+12,{},467
2025-02-25 13:38:17.937000+05:30,1.74047E+12,1.74047E+12,{},0
2025-02-25 13:38:17.787000+05:30,1.74047E+12,1.74047E+12,{},278
2025-02-25 13:38:17.776000+05:30,1.74047E+12,1.74047E+12,{},0
2025-02-25 13:38:17.626000+05:30,1.74047E+12,1.74047E+12,{},399
2025-02-25 13:38:17.476000+05:30,1.74047E+12,1.74047E+12,{},0
2025-02-25 13:38:17.326000+05:30,1.74047E+12,1.74047E+12,{},269
2025-02-25 13:38:17.315000+05:30,1.74047E+12,1.74047E+12,{},0
2025-02-25 13:38:17.165000+05:30,1.74047E+12,1.74047E+12,{},534
2025-02-25 13:38:17.015000+05:30,1.74047E+12,1.74047E+12,{},0
2025-02-25 13:38:16.865000+05:30,1.74047E+12,1.74047E+12,{},126
2025-02-25 13:38:16.854000+05:30,1.74047E+12,1.74047E+12,{},0
2025-02-25 13:38:16.704000+05:30,1.74047E+12,1.74047E+12,{},368
2025-02-25 13:38:16.554000+05:30,1.74047E+12,1.74047E+12,{},0
2025-02-25 13:38:16.404000+05:30,1.74047E+12,1.74047E+12,{},319
2025-02-25 13:38:16.393000+05:30,1.74047E+12,1.74047E+12,{},0
2025-02-25 13:38:16.243000+05:30,1.74047E+12,1.74047E+12,{},461
2025-02-25 13:38:16.093000+05:30,1.74047E+12,1.74047E+12,{},0
2025-02-25 13:38:15.943000+05:30,1.74047E+12,1.74047E+12,{},91
2025-02-25 13:38:15.932000+05:30,1.74047E+12,1.74047E+12,{},0
2025-02-25 13:38:15.782000+05:30,1.74047E+12,1.74047E+12,{},291
2025-02-25 13:38:15.632000+05:30,1.74047E+12,1.74047E+12,{},0
2025-02-25 13:38:15.482000+05:30,1.74047E+12,1.74047E+12,{},121
2025-02-25 13:38:15.471000+05:30,1.74047E+12,1.74047E+12,{},0
2025-02-25 13:38:15.321000+05:30,1.74047E+12,1.74047E+12,{},313
2025-02-25 13:38:15.171000+05:30,1.74047E+12,1.74047E+12,{},0
2025-02-25 13:38:15.021000+05:30,1.74047E+12,1.74047E+12,{},66
2025-02-25 13:38:15.010000+05:30,1.74047E+12,1.74047E+12,{},0
2025-02-25 13:38:14.860000+05:30,1.74047E+12,1.74047E+12,{},368
2025-02-25 13:38:14.710000+05:30,1.74047E+12,1.74047E+12,{},0
2025-02-25 13:38:14.560000+05:30,1.74047E+12,1.74047E+12,{},105
2025-02-25 13:38:14.549000+05:30,1.74047E+12,1.74047E+12,{},0
2025-02-25 13:38:14.399000+05:30,1.74047E+12,1.74047E+12,{},318
2025-02-25 13:38:14.249000+05:30,1.74047E+12,1.74047E+12,{},31
2025-02-25 13:38:14.099000+05:30,1.74047E+12,1.74047E+12,{},178
2025-02-25 13:38:14.088000+05:30,1.74047E+12,1.74047E+12,{},0
2025-02-25 13:38:13.938000+05:30,1.74047E+12,1.74047E+12,{},364
2025-02-25 13:38:13.788000+05:30,1.74047E+12,1.74047E+12,{},9
2025-02-25 13:38:13.638000+05:30,1.74047E+12,1.74047E+12,{},0
2025-02-25 13:38:13.627000+05:30,1.74047E+12,1.74047E+12,{},0
2025-02-25 13:38:13.477000+05:30,1.74047E+12,1.74047E+12,{},325
2025-02-25 13:38:13.327000+05:30,1.74047E+12,1.74047E+12,{},0
2025-02-25 13:38:13.177000+05:30,1.74047E+12,1.74047E+12,{},157
2025-02-25 13:38:13.166000+05:30,1.74047E+12,1.74047E+12,{},0
2025-02-25 13:38:13.016000+05:30,1.74047E+12,1.74047E+12,{},368
2025-02-25 13:38:12.866000+05:30,1.74047E+12,1.74047E+12,{},14
2025-02-25 13:38:12.716000+05:30,1.74047E+12,1.74047E+12,{},33
2025-02-25 13:38:12.705000+05:30,1.74047E+12,1.74047E+12,{},0
2025-02-25 13:38:12.555000+05:30,1.74047E+12,1.74047E+12,{},272
2025-02-25 13:38:12.405000+05:30,1.74047E+12,1.74047E+12,{},26
2025-02-25 13:38:12.255000+05:30,1.74047E+12,1.74047E+12,{},59
2025-02-25 13:38:12.244000+05:30,1.74047E+12,1.74047E+12,{},0
2025-02-25 13:38:12.094000+05:30,1.74047E+12,1.74047E+12,{},186
2025-02-25 13:38:11.944000+05:30,1.74047E+12,1.74047E+12,{},67
2025-02-25 13:38:11.794000+05:30,1.74047E+12,1.74047E+12,{},57
2025-02-25 13:38:11.783000+05:30,1.74047E+12,1.74047E+12,{},0
2025-02-25 13:38:11.633000+05:30,1.74047E+12,1.74047E+12,{},354
2025-02-25 13:38:11.483000+05:30,1.74047E+12,1.74047E+12,{},0
2025-02-25 13:38:11.333000+05:30,1.74047E+12,1.74047E+12,{},48
2025-02-25 13:38:11.322000+05:30,1.74047E+12,1.74047E+12,{},0
2025-02-25 13:38:11.172000+05:30,1.74047E+12,1.74047E+12,{},303
2025-02-25 13:38:11.022000+05:30,1.74047E+12,1.74047E+12,{},29
2025-02-25 13:38:10.872000+05:30,1.74047E+12,1.74047E+12,{},226
2025-02-25 13:38:10.861000+05:30,1.74047E+12,1.74047E+12,{},0
2025-02-25 13:38:10.711000+05:30,1.74047E+12,1.74047E+12,{},471
2025-02-25 13:38:10.561000+05:30,1.74047E+12,1.74047E+12,{},18
2025-02-25 13:38:10.411000+05:30,1.74047E+12,1.74047E+12,{},310
2025-02-25 13:38:10.400000+05:30,1.74047E+12,1.74047E+12,{},0
2025-02-25 13:38:10.250000+05:30,1.74047E+12,1.74047E+12,{},553
2025-02-25 13:38:10.100000+05:30,1.74047E+12,1.74047E+12,{},0
2025-02-25 13:38:09.950000+05:30,1.74047E+12,1.74047E+12,{},378
2025-02-25 13:38:09.939000+05:30,1.74047E+12,1.74047E+12,{},0
2025-02-25 13:38:09.789000+05:30,1.74047E+12,1.74047E+12,{},587
2025-02-25 13:38:09.639000+05:30,1.74047E+12,1.74047E+12,{},0
2025-02-25 13:38:09.489000+05:30,1.74047E+12,1.74047E+12,{},81
2025-02-25 13:38:09.478000+05:30,1.74047E+12,1.74047E+12,{},0
2025-02-25 13:38:09.328000+05:30,1.74047E+12,1.74047E+12,{},355
2025-02-25 13:38:09.178000+05:30,1.74047E+12,1.74047E+12,{},17
2025-02-25 13:38:09.028000+05:30,1.74047E+12,1.74047E+12,{},77
2025-02-25 13:38:09.017000+05:30,1.74047E+12,1.74047E+12,{},0
2025-02-25 13:38:08.867000+05:30,1.74047E+12,1.74047E+12,{},237
2025-02-25 13:38:08.717000+05:30,1.74047E+12,1.74047E+12,{},83
2025-02-25 13:38:08.567000+05:30,1.74047E+12,1.74047E+12,{},164
2025-02-25 13:38:08.556000+05:30,1.74047E+12,1.74047E+12,{},0
2025-02-25 13:38:08.406000+05:30,1.74047E+12,1.74047E+12,{},359
2025-02-25 13:38:08.256000+05:30,1.74047E+12,1.74047E+12,{},48
2025-02-25 13:38:08.106000+05:30,1.74047E+12,1.74047E+12,{},0
2025-02-25 13:38:08.095000+05:30,1.74047E+12,1.74047E+12,{},0
2025-02-25 13:38:07.945000+05:30,1.74047E+12,1.74047E+12,{},176
2025-02-25 13:38:07.795000+05:30,1.74047E+12,1.74047E+12,{},75
2025-02-25 13:38:07.645000+05:30,1.74047E+12,1.74047E+12,{},86
2025-02-25 13:38:07.634000+05:30,1.74047E+12,1.74047E+12,{},0
2025-02-25 13:38:07.484000+05:30,1.74047E+12,1.74047E+12,{},311
2025-02-25 13:38:07.334000+05:30,1.74047E+12,1.74047E+12,{},79
2025-02-25 13:38:07.184000+05:30,1.74047E+12,1.74047E+12,{},0
2025-02-25 13:38:07.173000+05:30,1.74047E+12,1.74047E+12,{},3
2025-02-25 13:38:07.023000+05:30,1.74047E+12,1.74047E+12,{},239
2025-02-25 13:38:06.873000+05:30,1.74047E+12,1.74047E+12,{},80
2025-02-25 13:38:06.723000+05:30,1.74047E+12,1.74047E+12,{},44
2025-02-25 13:38:06.712000+05:30,1.74047E+12,1.74047E+12,{},0
2025-02-25 13:38:06.562000+05:30,1.74047E+12,1.74047E+12,{},184
2025-02-25 13:38:06.412000+05:30,1.74047E+12,1.74047E+12,{},122
2025-02-25 13:38:06.262000+05:30,1.74047E+12,1.74047E+12,{},0
2025-02-25 13:38:06.251000+05:30,1.74047E+12,1.74047E+12,{},38
2025-02-25 13:38:06.101000+05:30,1.74047E+12,1.74047E+12,{},275
2025-02-25 13:38:05.951000+05:30,1.74047E+12,1.74047E+12,{},66
2025-02-25 13:38:05.801000+05:30,1.74047E+12,1.74047E+12,{},0
2025-02-25 13:38:05.790000+05:30,1.74047E+12,1.74047E+12,{},11
2025-02-25 13:38:05.640000+05:30,1.74047E+12,1.74047E+12,{},121
2025-02-25 13:38:05.490000+05:30,1.74047E+12,1.74047E+12,{},129
2025-02-25 13:38:05.340000+05:30,1.74047E+12,1.74047E+12,{},54
2025-02-25 13:38:05.329000+05:30,1.74047E+12,1.74047E+12,{},29
2025-02-25 13:38:05.179000+05:30,1.74047E+12,1.74047E+12,{},272
2025-02-25 13:38:05.029000+05:30,1.74047E+12,1.74047E+12,{},110
2025-02-25 13:38:04.879000+05:30,1.74047E+12,1.74047E+12,{},0
2025-02-25 13:38:04.868000+05:30,1.74047E+12,1.74047E+12,{},43
2025-02-25 13:38:04.718000+05:30,1.74047E+12,1.74047E+12,{},101
2025-02-25 13:38:04.568000+05:30,1.74047E+12,1.74047E+12,{},123
2025-02-25 13:38:04.418000+05:30,1.74047E+12,1.74047E+12,{},0
2025-02-25 13:38:04.407000+05:30,1.74047E+12,1.74047E+12,{},46
2025-02-25 13:38:04.257000+05:30,1.74047E+12,1.74047E+12,{},171
2025-02-25 13:38:04.107000+05:30,1.74047E+12,1.74047E+12,{},128
2025-02-25 13:38:03.957000+05:30,1.74047E+12,1.74047E+12,{},0
2025-02-25 13:38:03.946000+05:30,1.74047E+12,1.74047E+12,{},64
2025-02-25 13:38:03.796000+05:30,1.74047E+12,1.74047E+12,{},176
2025-02-25 13:38:03.646000+05:30,1.74047E+12,1.74047E+12,{},101
2025-02-25 13:38:03.496000+05:30,1.74047E+12,1.74047E+12,{},0
2025-02-25 13:38:03.485000+05:30,1.74047E+12,1.74047E+12,{},30
2025-02-25 13:38:03.335000+05:30,1.74047E+12,1.74047E+12,{},71
2025-02-25 13:38:03.185000+05:30,1.74047E+12,1.74047E+12,{},173
2025-02-25 13:38:03.035000+05:30,1.74047E+12,1.74047E+12,{},0
2025-02-25 13:38:03.024000+05:30,1.74047E+12,1.74047E+12,{},86
2025-02-25 13:38:02.874000+05:30,1.74047E+12,1.74047E+12,{},196
2025-02-25 13:38:02.724000+05:30,1.74047E+12,1.74047E+12,{},118
2025-02-25 13:38:02.574000+05:30,1.74047E+12,1.74047E+12,{},0
2025-02-25 13:38:02.563000+05:30,1.74047E+12,1.74047E+12,{},64
2025-02-25 13:38:02.413000+05:30,1.74047E+12,1.74047E+12,{},19
2025-02-25 13:38:02.263000+05:30,1.74047E+12,1.74047E+12,{},144
2025-02-25 13:38:02.113000+05:30,1.74047E+12,1.74047E+12,{},0
2025-02-25 13:38:02.102000+05:30,1.74047E+12,1.74047E+12,{},64
2025-02-25 13:38:01.952000+05:30,1.74047E+12,1.74047E+12,{},197
2025-02-25 13:38:01.802000+05:30,1.74047E+12,1.74047E+12,{},150
2025-02-25 13:38:01.652000+05:30,1.74047E+12,1.74047E+12,{},0
2025-02-25 13:38:01.641000+05:30,1.74047E+12,1.74047E+12,{},66
2025-02-25 13:38:01.491000+05:30,1.74047E+12,1.74047E+12,{},93
2025-02-25 13:38:01.341000+05:30,1.74047E+12,1.74047E+12,{},142
2025-02-25 13:38:01.191000+05:30,1.74047E+12,1.74047E+12,{},0
2025-02-25 13:38:01.180000+05:30,1.74047E+12,1.74047E+12,{},51
2025-02-25 13:38:01.030000+05:30,1.74047E+12,1.74047E+12,{},85
2025-02-25 13:38:00.880000+05:30,1.74047E+12,1.74047E+12,{},162
2025-02-25 13:38:00.730000+05:30,1.74047E+12,1.74047E+12,{},0
2025-02-25 13:38:00.719000+05:30,1.74047E+12,1.74047E+12,{},103
2025-02-25 13:38:00.569000+05:30,1.74047E+12,1.74047E+12,{},179
2025-02-25 13:38:00.419000+05:30,1.74047E+12,1.74047E+12,{},93
2025-02-25 13:38:00.269000+05:30,1.74047E+12,1.74047E+12,{},0
2025-02-25 13:38:00.258000+05:30,1.74047E+12,1.74047E+12,{},5
2025-02-25 13:38:00.108000+05:30,1.74047E+12,1.74047E+12,{},294
2025-02-25 13:37:59.958000+05:30,1.74047E+12,1.74047E+12,{},110
2025-02-25 13:37:59.808000+05:30,1.74047E+12,1.74047E+12,{},190
2025-02-25 13:37:59.797000+05:30,1.74047E+12,1.74047E+12,{},15
2025-02-25 13:37:59.647000+05:30,1.74047E+12,1.74047E+12,{},270
2025-02-25 13:37:59.497000+05:30,1.74047E+12,1.74047E+12,{},130
2025-02-25 13:37:59.347000+05:30,1.74047E+12,1.74047E+12,{},0
2025-02-25 13:37:59.336000+05:30,1.74047E+12,1.74047E+12,{},75
2025-02-25 13:37:59.186000+05:30,1.74047E+12,1.74047E+12,{},47
2025-02-25 13:37:59.036000+05:30,1.74047E+12,1.74047E+12,{},132
2025-02-25 13:37:58.886000+05:30,1.74047E+12,1.74047E+12,{},0
2025-02-25 13:37:58.875000+05:30,1.74047E+12,1.74047E+12,{},61
2025-02-25 13:37:58.725000+05:30,1.74047E+12,1.74047E+12,{},96
2025-02-25 13:37:58.575000+05:30,1.74047E+12,1.74047E+12,{},128
2025-02-25 13:37:58.425000+05:30,1.74047E+12,1.74047E+12,{},0
2025-02-25 13:37:58.414000+05:30,1.74047E+12,1.74047E+12,{},65
2025-02-25 13:37:58.264000+05:30,1.74047E+12,1.74047E+12,{},127
2025-02-25 13:37:58.114000+05:30,1.74047E+12,1.74047E+12,{},64
2025-02-25 13:37:57.964000+05:30,1.74047E+12,1.74047E+12,{},43
2025-02-25 13:37:57.953000+05:30,1.74047E+12,1.74047E+12,{},0
2025-02-25 13:37:57.803000+05:30,1.74047E+12,1.74047E+12,{},192
2025-02-25 13:37:57.653000+05:30,1.74047E+12,1.74047E+12,{},103
2025-02-25 13:37:57.503000+05:30,1.74047E+12,1.74047E+12,{},143
2025-02-25 13:37:57.492000+05:30,1.74047E+12,1.74047E+12,{},17
2025-02-25 13:37:57.342000+05:30,1.74047E+12,1.74047E+12,{},305
2025-02-25 13:37:57.192000+05:30,1.74047E+12,1.74047E+12,{},69
2025-02-25 13:37:57.042000+05:30,1.74047E+12,1.74047E+12,{},0
2025-02-25 13:37:57.031000+05:30,1.74047E+12,1.74047E+12,{},46
2025-02-25 13:37:56.881000+05:30,1.74047E+12,1.74047E+12,{},16
2025-02-25 13:37:56.731000+05:30,1.74047E+12,1.74047E+12,{},102
2025-02-25 13:37:56.581000+05:30,1.74047E+12,1.74047E+12,{},26
2025-02-25 13:37:56.570000+05:30,1.74047E+12,1.74047E+12,{},17
2025-02-25 13:37:56.420000+05:30,1.74047E+12,1.74047E+12,{},183
2025-02-25 13:37:56.270000+05:30,1.74047E+12,1.74047E+12,{},78
2025-02-25 13:37:56.120000+05:30,1.74047E+12,1.74047E+12,{},0
2025-02-25 13:37:56.109000+05:30,1.74047E+12,1.74047E+12,{},3
2025-02-25 13:37:55.959000+05:30,1.74047E+12,1.74047E+12,{},55
2025-02-25 13:37:55.809000+05:30,1.74047E+12,1.74047E+12,{},59
2025-02-25 13:37:55.659000+05:30,1.74047E+12,1.74047E+12,{},0
2025-02-25 13:37:55.648000+05:30,1.74047E+12,1.74047E+12,{},0
2025-02-25 13:37:55.498000+05:30,1.74047E+12,1.74047E+12,{},115
2025-02-25 13:37:55.348000+05:30,1.74047E+12,1.74047E+12,{},54
2025-02-25 13:37:55.198000+05:30,1.74047E+12,1.74047E+12,{},0
2025-02-25 13:37:55.187000+05:30,1.74047E+12,1.74047E+12,{},16
2025-02-25 13:37:55.037000+05:30,1.74047E+12,1.74047E+12,{},181
2025-02-25 13:37:54.887000+05:30,1.74047E+12,1.74047E+12,{},23
2025-02-25 13:37:54.737000+05:30,1.74047E+12,1.74047E+12,{},22
2025-02-25 13:37:54.726000+05:30,1.74047E+12,1.74047E+12,{},0
2025-02-25 13:37:54.576000+05:30,1.74047E+12,1.74047E+12,{},240
2025-02-25 13:37:54.426000+05:30,1.74047E+12,1.74047E+12,{},47
2025-02-25 13:37:54.276000+05:30,1.74047E+12,1.74047E+12,{},144
2025-02-25 13:37:54.265000+05:30,1.74047E+12,1.74047E+12,{},0
2025-02-25 13:37:54.115000+05:30,1.74047E+12,1.74047E+12,{},427
2025-02-25 13:37:53.965000+05:30,1.74047E+12,1.74047E+12,{},0
2025-02-25 13:37:53.815000+05:30,1.74047E+12,1.74047E+12,{},111
2025-02-25 13:37:53.804000+05:30,1.74047E+12,1.74047E+12,{},0
2025-02-25 13:37:53.654000+05:30,1.74047E+12,1.74047E+12,{},279
2025-02-25 13:37:53.504000+05:30,1.74047E+12,1.74047E+12,{},0
2025-02-25 13:37:53.354000+05:30,1.74047E+12,1.74047E+12,{},208
2025-02-25 13:37:53.343000+05:30,1.74047E+12,1.74047E+12,{},0
2025-02-25 13:37:53.193000+05:30,1.74047E+12,1.74047E+12,{},464
2025-02-25 13:37:53.043000+05:30,1.74047E+12,1.74047E+12,{},0
2025-02-25 13:37:52.893000+05:30,1.74047E+12,1.74047E+12,{},140
2025-02-25 13:37:52.882000+05:30,1.74047E+12,1.74047E+12,{},0
2025-02-25 13:37:52.732000+05:30,1.74047E+12,1.74047E+12,{},374
2025-02-25 13:37:52.582000+05:30,1.74047E+12,1.74047E+12,{},0
2025-02-25 13:37:52.432000+05:30,1.74047E+12,1.74047E+12,{},276
2025-02-25 13:37:52.421000+05:30,1.74047E+12,1.74047E+12,{},0
2025-02-25 13:37:52.271000+05:30,1.74047E+12,1.74047E+12,{},432
2025-02-25 13:37:52.121000+05:30,1.74047E+12,1.74047E+12,{},0
2025-02-25 13:37:51.971000+05:30,1.74047E+12,1.74047E+12,{},336
2025-02-25 13:37:51.960000+05:30,1.74047E+12,1.74047E+12,{},0
2025-02-25 13:37:51.810000+05:30,1.74047E+12,1.74047E+12,{},551
2025-02-25 13:37:51.660000+05:30,1.74047E+12,1.74047E+12,{},0
2025-02-25 13:37:51.510000+05:30,1.74047E+12,1.74047E+12,{},212
2025-02-25 13:37:51.499000+05:30,1.74047E+12,1.74047E+12,{},0
2025-02-25 13:37:51.349000+05:30,1.74047E+12,1.74047E+12,{},431
2025-02-25 13:37:51.199000+05:30,1.74047E+12,1.74047E+12,{},0
2025-02-25 13:37:51.049000+05:30,1.74047E+12,1.74047E+12,{},379
2025-02-25 13:37:51.038000+05:30,1.74047E+12,1.74047E+12,{},0
2025-02-25 13:37:50.888000+05:30,1.74047E+12,1.74047E+12,{},629
2025-02-25 13:37:50.738000+05:30,1.74047E+12,1.74047E+12,{},0
2025-02-25 13:37:50.588000+05:30,1.74047E+12,1.74047E+12,{},320
2025-02-25 13:37:50.577000+05:30,1.74047E+12,1.74047E+12,{},0
2025-02-25 13:37:50.427000+05:30,1.74047E+12,1.74047E+12,{},493
2025-02-25 13:37:50.277000+05:30,1.74047E+12,1.74047E+12,{},0
2025-02-25 13:37:50.127000+05:30,1.74047E+12,1.74047E+12,{},561
2025-02-25 13:37:50.116000+05:30,1.74047E+12,1.74047E+12,{},0
2025-02-25 13:37:49.966000+05:30,1.74047E+12,1.74047E+12,{},643
2025-02-25 13:37:49.816000+05:30,1.74047E+12,1.74047E+12,{},0
2025-02-25 13:37:49.666000+05:30,1.74047E+12,1.74047E+12,{},592
2025-02-25 13:37:49.655000+05:30,1.74047E+12,1.74047E+12,{},0
2025-02-25 13:37:49.505000+05:30,1.74047E+12,1.74047E+12,{},809
2025-02-25 13:37:49.355000+05:30,1.74047E+12,1.74047E+12,{},0
2025-02-25 13:37:49.205000+05:30,1.74047E+12,1.74047E+12,{},652
2025-02-25 13:37:49.194000+05:30,1.74047E+12,1.74047E+12,{},0
2025-02-25 13:37:49.044000+05:30,1.74047E+12,1.74047E+12,{},688
2025-02-25 13:37:48.894000+05:30,1.74047E+12,1.74047E+12,{},0
2025-02-25 13:37:48.744000+05:30,1.74047E+12,1.74047E+12,{},768
2025-02-25 13:37:48.733000+05:30,1.74047E+12,1.74047E+12,{},0
2025-02-25 13:37:48.583000+05:30,1.74047E+12,1.74047E+12,{},892
2025-02-25 13:37:48.433000+05:30,1.74047E+12,1.74047E+12,{},0
2025-02-25 13:37:48.283000+05:30,1.74047E+12,1.74047E+12,{},643
2025-02-25 13:37:48.272000+05:30,1.74047E+12,1.74047E+12,{},0
2025-02-25 13:37:48.122000+05:30,1.74047E+12,1.74047E+12,{},685
2025-02-25 13:37:47.972000+05:30,1.74047E+12,1.74047E+12,{},0
2025-02-25 13:37:47.822000+05:30,1.74047E+12,1.74047E+12,{},767
2025-02-25 13:37:47.811000+05:30,1.74047E+12,1.74047E+12,{},0
2025-02-25 13:37:47.661000+05:30,1.74047E+12,1.74047E+12,{},870
2025-02-25 13:37:47.511000+05:30,1.74047E+12,1.74047E+12,{},0
2025-02-25 13:37:47.361000+05:30,1.74047E+12,1.74047E+12,{},626
2025-02-25 13:37:47.350000+05:30,1.74047E+12,1.74047E+12,{},0
2025-02-25 13:37:47.200000+05:30,1.74047E+12,1.74047E+12,{},784
2025-02-25 13:37:47.050000+05:30,1.74047E+12,1.74047E+12,{},0
2025-02-25 13:37:46.900000+05:30,1.74047E+12,1.74047E+12,{},801
2025-02-25 13:37:46.889000+05:30,1.74047E+12,1.74047E+12,{},0
2025-02-25 13:37:46.739000+05:30,1.74047E+12,1.74047E+12,{},806
2025-02-25 13:37:46.589000+05:30,1.74047E+12,1.74047E+12,{},0
2025-02-25 13:37:46.439000+05:30,1.74047E+12,1.74047E+12,{},765
2025-02-25 13:37:46.428000+05:30,1.74047E+12,1.74047E+12,{},0
2025-02-25 13:37:46.278000+05:30,1.74047E+12,1.74047E+12,{},819
2025-02-25 13:37:46.128000+05:30,1.74047E+12,1.74047E+12,{},0
2025-02-25 13:37:45.978000+05:30,1.74047E+12,1.74047E+12,{},751
2025-02-25 13:37:45.967000+05:30,1.74047E+12,1.74047E+12,{},0
2025-02-25 13:37:45.817000+05:30,1.74047E+12,1.74047E+12,{},735
2025-02-25 13:37:45.667000+05:30,1.74047E+12,1.74047E+12,{},0
2025-02-25 13:37:45.517000+05:30,1.74047E+12,1.74047E+12,{},838
2025-02-25 13:37:45.506000+05:30,1.74047E+12,1.74047E+12,{},0
2025-02-25 13:37:45.356000+05:30,1.74047E+12,1.74047E+12,{},876
2025-02-25 13:37:45.206000+05:30,1.74047E+12,1.74047E+12,{},0
2025-02-25 13:37:45.056000+05:30,1.74047E+12,1.74047E+12,{},694
2025-02-25 13:37:45.045000+05:30,1.74047E+12,1.74047E+12,{},0
2025-02-25 13:37:44.895000+05:30,1.74047E+12,1.74047E+12,{},727
2025-02-25 13:37:44.745000+05:30,1.74047E+12,1.74047E+12,{},0
2025-02-25 13:37:44.595000+05:30,1.74047E+12,1.74047E+12,{},887
2025-02-25 13:37:44.584000+05:30,1.74047E+12,1.74047E+12,{},0
2025-02-25 13:37:44.434000+05:30,1.74047E+12,1.74047E+12,{},845
2025-02-25 13:37:44.284000+05:30,1.74047E+12,1.74047E+12,{},0
2025-02-25 13:37:44.134000+05:30,1.74047E+12,1.74047E+12,{},777
2025-02-25 13:37:44.123000+05:30,1.74047E+12,1.74047E+12,{},0
2025-02-25 13:37:43.973000+05:30,1.74047E+12,1.74047E+12,{},837
2025-02-25 13:37:43.823000+05:30,1.74047E+12,1.74047E+12,{},0
2025-02-25 13:37:43.673000+05:30,1.74047E+12,1.74047E+12,{},832
2025-02-25 13:37:43.662000+05:30,1.74047E+12,1.74047E+12,{},0
2025-02-25 13:37:43.512000+05:30,1.74047E+12,1.74047E+12,{},839
2025-02-25 13:37:43.362000+05:30,1.74047E+12,1.74047E+12,{},0
2025-02-25 13:37:43.212000+05:30,1.74047E+12,1.74047E+12,{},859
2025-02-25 13:37:43.201000+05:30,1.74047E+12,1.74047E+12,{},0
2025-02-25 13:37:43.051000+05:30,1.74047E+12,1.74047E+12,{},884
2025-02-25 13:37:42.901000+05:30,1.74047E+12,1.74047E+12,{},0
2025-02-25 13:37:42.751000+05:30,1.74047E+12,1.74047E+12,{},813
2025-02-25 13:37:42.740000+05:30,1.74047E+12,1.74047E+12,{},0
2025-02-25 13:37:42.590000+05:30,1.74047E+12,1.74047E+12,{},746
2025-02-25 13:37:42.440000+05:30,1.74047E+12,1.74047E+12,{},0
2025-02-25 13:37:42.290000+05:30,1.74047E+12,1.74047E+12,{},894
2025-02-25 13:37:42.279000+05:30,1.74047E+12,1.74047E+12,{},0
2025-02-25 13:37:42.129000+05:30,1.74047E+12,1.74047E+12,{},894
2025-02-25 13:37:41.979000+05:30,1.74047E+12,1.74047E+12,{},0
2025-02-25 13:37:41.829000+05:30,1.74047E+12,1.74047E+12,{},721
2025-02-25 13:37:41.818000+05:30,1.74047E+12,1.74047E+12,{},0
2025-02-25 13:37:41.668000+05:30,1.74047E+12,1.74047E+12,{},767
2025-02-25 13:37:41.518000+05:30,1.74047E+12,1.74047E+12,{},0
2025-02-25 13:37:41.368000+05:30,1.74047E+12,1.74047E+12,{},887
2025-02-25 13:37:41.357000+05:30,1.74047E+12,1.74047E+12,{},0
2025-02-25 13:37:41.207000+05:30,1.74047E+12,1.74047E+12,{},795
2025-02-25 13:37:41.057000+05:30,1.74047E+12,1.74047E+12,{},0
2025-02-25 13:37:40.907000+05:30,1.74047E+12,1.74047E+12,{},826
2025-02-25 13:37:40.896000+05:30,1.74047E+12,1.74047E+12,{},0
2025-02-25 13:37:40.746000+05:30,1.74047E+12,1.74047E+12,{},758
2025-02-25 13:37:40.596000+05:30,1.74047E+12,1.74047E+12,{},0
2025-02-25 13:37:40.446000+05:30,1.74047E+12,1.74047E+12,{},811
2025-02-25 13:37:40.435000+05:30,1.74047E+12,1.74047E+12,{},0
2025-02-25 13:37:40.285000+05:30,1.74047E+12,1.74047E+12,{},711
2025-02-25 13:37:40.135000+05:30,1.74047E+12,1.74047E+12,{},0
2025-02-25 13:37:39.985000+05:30,1.74047E+12,1.74047E+12,{},826
2025-02-25 13:37:39.974000+05:30,1.74047E+12,1.74047E+12,{},0
2025-02-25 13:37:39.824000+05:30,1.74047E+12,1.74047E+12,{},786
2025-02-25 13:37:39.674000+05:30,1.74047E+12,1.74047E+12,{},0
2025-02-25 13:37:39.524000+05:30,1.74047E+12,1.74047E+12,{},736
2025-02-25 13:37:39.513000+05:30,1.74047E+12,1.74047E+12,{},0
2025-02-25 13:37:39.363000+05:30,1.74047E+12,1.74047E+12,{},640
2025-02-25 13:37:39.213000+05:30,1.74047E+12,1.74047E+12,{},0
2025-02-25 13:37:39.063000+05:30,1.74047E+12,1.74047E+12,{},896
2025-02-25 13:37:39.052000+05:30,1.74047E+12,1.74047E+12,{},0
2025-02-25 13:37:38.902000+05:30,1.74047E+12,1.74047E+12,{},743
2025-02-25 13:37:38.752000+05:30,1.74047E+12,1.74047E+12,{},0
2025-02-25 13:37:38.602000+05:30,1.74047E+12,1.74047E+12,{},736
2025-02-25 13:37:38.591000+05:30,1.74047E+12,1.74047E+12,{},0
2025-02-25 13:37:38.441000+05:30,1.74047E+12,1.74047E+12,{},662
2025-02-25 13:37:38.291000+05:30,1.74047E+12,1.74047E+12,{},0
2025-02-25 13:37:38.141000+05:30,1.74047E+12,1.74047E+12,{},789
2025-02-25 13:37:38.130000+05:30,1.74047E+12,1.74047E+12,{},0
2025-02-25 13:37:37.980000+05:30,1.74047E+12,1.74047E+12,{},653
2025-02-25 13:37:37.830000+05:30,1.74047E+12,1.74047E+12,{},0
2025-02-25 13:37:37.680000+05:30,1.74047E+12,1.74047E+12,{},763
2025-02-25 13:37:37.669000+05:30,1.74047E+12,1.74047E+12,{},0
2025-02-25 13:37:37.519000+05:30,1.74047E+12,1.74047E+12,{},656
2025-02-25 13:37:37.369000+05:30,1.74047E+12,1.74047E+12,{},0
2025-02-25 13:37:37.219000+05:30,1.74047E+12,1.74047E+12,{},677
2025-02-25 13:37:37.208000+05:30,1.74047E+12,1.74047E+12,{},0
2025-02-25 13:37:37.058000+05:30,1.74047E+12,1.74047E+12,{},535
2025-02-25 13:37:36.908000+05:30,1.74047E+12,1.74047E+12,{},0
2025-02-25 13:37:36.758000+05:30,1.74047E+12,1.74047E+12,{},711
2025-02-25 13:37:36.747000+05:30,1.74047E+12,1.74047E+12,{},0
2025-02-25 13:37:36.597000+05:30,1.74047E+12,1.74047E+12,{},661
2025-02-25 13:37:36.447000+05:30,1.74047E+12,1.74047E+12,{},0
2025-02-25 13:37:36.297000+05:30,1.74047E+12,1.74047E+12,{},556
2025-02-25 13:37:36.286000+05:30,1.74047E+12,1.74047E+12,{},0
2025-02-25 13:37:36.136000+05:30,1.74047E+12,1.74047E+12,{},511
2025-02-25 13:37:35.986000+05:30,1.74047E+12,1.74047E+12,{},0
2025-02-25 13:37:35.836000+05:30,1.74047E+12,1.74047E+12,{},695
2025-02-25 13:37:35.825000+05:30,1.74047E+12,1.74047E+12,{},0
2025-02-25 13:37:35.675000+05:30,1.74047E+12,1.74047E+12,{},557
2025-02-25 13:37:35.525000+05:30,1.74047E+12,1.74047E+12,{},0
2025-02-25 13:37:35.375000+05:30,1.74047E+12,1.74047E+12,{},680
2025-02-25 13:37:35.364000+05:30,1.74047E+12,1.74047E+12,{},0
2025-02-25 13:37:35.214000+05:30,1.74047E+12,1.74047E+12,{},576
2025-02-25 13:37:35.064000+05:30,1.74047E+12,1.74047E+12,{},0
2025-02-25 13:37:34.914000+05:30,1.74047E+12,1.74047E+12,{},720
2025-02-25 13:37:34.903000+05:30,1.74047E+12,1.74047E+12,{},0
2025-02-25 13:37:34.753000+05:30,1.74047E+12,1.74047E+12,{},570
2025-02-25 13:37:34.603000+05:30,1.74047E+12,1.74047E+12,{},0
2025-02-25 13:37:34.453000+05:30,1.74047E+12,1.74047E+12,{},674
2025-02-25 13:37:34.442000+05:30,1.74047E+12,1.74047E+12,{},0
2025-02-25 13:37:34.292000+05:30,1.74047E+12,1.74047E+12,{},583
2025-02-25 13:37:34.142000+05:30,1.74047E+12,1.74047E+12,{},0
2025-02-25 13:37:33.992000+05:30,1.74047E+12,1.74047E+12,{},600
2025-02-25 13:37:33.981000+05:30,1.74047E+12,1.74047E+12,{},0
2025-02-25 13:37:33.831000+05:30,1.74047E+12,1.74047E+12,{},452
2025-02-25 13:37:33.681000+05:30,1.74047E+12,1.74047E+12,{},0
2025-02-25 13:37:33.531000+05:30,1.74047E+12,1.74047E+12,{},672
2025-02-25 13:37:33.520000+05:30,1.74047E+12,1.74047E+12,{},0
2025-02-25 13:37:33.370000+05:30,1.74047E+12,1.74047E+12,{},576
2025-02-25 13:37:33.220000+05:30,1.74047E+12,1.74047E+12,{},0
2025-02-25 13:37:33.070000+05:30,1.74047E+12,1.74047E+12,{},522
2025-02-25 13:37:33.059000+05:30,1.74047E+12,1.74047E+12,{},0
2025-02-25 13:37:32.909000+05:30,1.74047E+12,1.74047E+12,{},415
2025-02-25 13:37:32.759000+05:30,1.74047E+12,1.74047E+12,{},0
2025-02-25 13:37:32.609000+05:30,1.74047E+12,1.74047E+12,{},273
2025-02-25 13:37:32.598000+05:30,1.74047E+12,1.74047E+12,{},0
2025-02-25 13:37:32.448000+05:30,1.74047E+12,1.74047E+12,{},217
2025-02-25 13:37:32.298000+05:30,1.74047E+12,1.74047E+12,{},0
2025-02-25 13:37:32.148000+05:30,1.74047E+12,1.74047E+12,{},285
2025-02-25 13:37:32.137000+05:30,1.74047E+12,1.74047E+12,{},0
2025-02-25 13:37:31.987000+05:30,1.74047E+12,1.74047E+12,{},288
2025-02-25 13:37:31.837000+05:30,1.74047E+12,1.74047E+12,{},0
2025-02-25 13:37:31.687000+05:30,1.74047E+12,1.74047E+12,{},291
2025-02-25 13:37:31.676000+05:30,1.74047E+12,1.74047E+12,{},0
2025-02-25 13:37:31.526000+05:30,1.74047E+12,1.74047E+12,{},267
2025-02-25 13:37:31.376000+05:30,1.74047E+12,1.74047E+12,{},0
2025-02-25 13:37:31.226000+05:30,1.74047E+12,1.74047E+12,{},254
2025-02-25 13:37:31.215000+05:30,1.74047E+12,1.74047E+12,{},0
2025-02-25 13:37:31.065000+05:30,1.74047E+12,1.74047E+12,{},368
2025-02-25 13:37:30.915000+05:30,1.74047E+12,1.74047E+12,{},0
2025-02-25 13:37:30.765000+05:30,1.74047E+12,1.74047E+12,{},214
2025-02-25 13:37:30.754000+05:30,1.74047E+12,1.74047E+12,{},0
2025-02-25 13:37:30.604000+05:30,1.74047E+12,1.74047E+12,{},202
2025-02-25 13:37:30.454000+05:30,1.74047E+12,1.74047E+12,{},0
2025-02-25 13:37:30.304000+05:30,1.74047E+12,1.74047E+12,{},343
2025-02-25 13:37:30.293000+05:30,1.74047E+12,1.74047E+12,{},0
2025-02-25 13:37:30.143000+05:30,1.74047E+12,1.74047E+12,{},272
2025-02-25 13:37:29.993000+05:30,1.74047E+12,1.74047E+12,{},0
2025-02-25 13:37:29.843000+05:30,1.74047E+12,1.74047E+12,{},258
2025-02-25 13:37:29.832000+05:30,1.74047E+12,1.74047E+12,{},0
2025-02-25 13:37:29.682000+05:30,1.74047E+12,1.74047E+12,{},225
2025-02-25 13:37:29.532000+05:30,1.74047E+12,1.74047E+12,{},0
2025-02-25 13:37:29.382000+05:30,1.74047E+12,1.74047E+12,{},289
2025-02-25 13:37:29.371000+05:30,1.74047E+12,1.74047E+12,{},0
2025-02-25 13:37:29.221000+05:30,1.74047E+12,1.74047E+12,{},223
2025-02-25 13:37:29.071000+05:30,1.74047E+12,1.74047E+12,{},0
2025-02-25 13:37:28.921000+05:30,1.74047E+12,1.74047E+12,{},276
2025-02-25 13:37:28.910000+05:30,1.74047E+12,1.74047E+12,{},0
2025-02-25 13:37:28.760000+05:30,1.74047E+12,1.74047E+12,{},220
2025-02-25 13:37:28.610000+05:30,1.74047E+12,1.74047E+12,{},0
2025-02-25 13:37:28.460000+05:30,1.74047E+12,1.74047E+12,{},256
2025-02-25 13:37:28.449000+05:30,1.74047E+12,1.74047E+12,{},0
2025-02-25 13:37:28.299000+05:30,1.74047E+12,1.74047E+12,{},141
2025-02-25 13:37:28.149000+05:30,1.74047E+12,1.74047E+12,{},0
2025-02-25 13:37:27.999000+05:30,1.74047E+12,1.74047E+12,{},258
2025-02-25 13:37:27.988000+05:30,1.74047E+12,1.74047E+12,{},0
2025-02-25 13:37:27.838000+05:30,1.74047E+12,1.74047E+12,{},232
2025-02-25 13:37:27.688000+05:30,1.74047E+12,1.74047E+12,{},0
2025-02-25 13:37:27.538000+05:30,1.74047E+12,1.74047E+12,{},208
2025-02-25 13:37:27.527000+05:30,1.74047E+12,1.74047E+12,{},0
2025-02-25 13:37:27.377000+05:30,1.74047E+12,1.74047E+12,{},215
2025-02-25 13:37:27.227000+05:30,1.74047E+12,1.74047E+12,{},0
2025-02-25 13:37:27.077000+05:30,1.74047E+12,1.74047E+12,{},306
2025-02-25 13:37:27.066000+05:30,1.74047E+12,1.74047E+12,{},0
2025-02-25 13:37:26.916000+05:30,1.74047E+12,1.74047E+12,{},168
2025-02-25 13:37:26.766000+05:30,1.74047E+12,1.74047E+12,{},0
2025-02-25 13:37:26.616000+05:30,1.74047E+12,1.74047E+12,{},213
2025-02-25 13:37:26.605000+05:30,1.74047E+12,1.74047E+12,{},0
2025-02-25 13:37:26.455000+05:30,1.74047E+12,1.74047E+12,{},176
2025-02-25 13:37:26.305000+05:30,1.74047E+12,1.74047E+12,{},0
2025-02-25 13:37:26.155000+05:30,1.74047E+12,1.74047E+12,{},391
2025-02-25 13:37:26.144000+05:30,1.74047E+12,1.74047E+12,{},0
2025-02-25 13:37:25.994000+05:30,1.74047E+12,1.74047E+12,{},293
2025-02-25 13:37:25.844000+05:30,1.74047E+12,1.74047E+12,{},0
2025-02-25 13:37:25.694000+05:30,1.74047E+12,1.74047E+12,{},452
2025-02-25 13:37:25.683000+05:30,1.74047E+12,1.74047E+12,{},0
2025-02-25 13:37:25.533000+05:30,1.74047E+12,1.74047E+12,{},381
2025-02-25 13:37:25.383000+05:30,1.74047E+12,1.74047E+12,{},0
2025-02-25 13:37:25.233000+05:30,1.74047E+12,1.74047E+12,{},430
2025-02-25 13:37:25.222000+05:30,1.74047E+12,1.74047E+12,{},0
2025-02-25 13:37:25.072000+05:30,1.74047E+12,1.74047E+12,{},292
2025-02-25 13:37:24.922000+05:30,1.74047E+12,1.74047E+12,{},0
2025-02-25 13:37:24.772000+05:30,1.74047E+12,1.74047E+12,{},550
2025-02-25 13:37:24.761000+05:30,1.74047E+12,1.74047E+12,{},0
2025-02-25 13:37:24.611000+05:30,1.74047E+12,1.74047E+12,{},369
2025-02-25 13:37:24.461000+05:30,1.74047E+12,1.74047E+12,{},0
2025-02-25 13:37:24.311000+05:30,1.74047E+12,1.74047E+12,{},425
2025-02-25 13:37:24.300000+05:30,1.74047E+12,1.74047E+12,{},0
2025-02-25 13:37:24.150000+05:30,1.74047E+12,1.74047E+12,{},313
2025-02-25 13:37:24+05:30,1.74047E+12,1.74047E+12,{},0
2025-02-25 13:37:23.850000+05:30,1.74047E+12,1.74047E+12,{},487
2025-02-25 13:37:23.839000+05:30,1.74047E+12,1.74047E+12,{},0
2025-02-25 13:37:23.689000+05:30,1.74047E+12,1.74047E+12,{},325
2025-02-25 13:37:23.539000+05:30,1.74047E+12,1.74047E+12,{},0
2025-02-25 13:37:23.389000+05:30,1.74047E+12,1.74047E+12,{},449
2025-02-25 13:37:23.378000+05:30,1.74047E+12,1.74047E+12,{},0
2025-02-25 13:37:23.228000+05:30,1.74047E+12,1.74047E+12,{},320
2025-02-25 13:37:23.078000+05:30,1.74047E+12,1.74047E+12,{},0
2025-02-25 13:37:22.928000+05:30,1.74047E+12,1.74047E+12,{},448
2025-02-25 13:37:22.917000+05:30,1.74047E+12,1.74047E+12,{},0
2025-02-25 13:37:22.767000+05:30,1.74047E+12,1.74047E+12,{},272
2025-02-25 13:37:22.617000+05:30,1.74047E+12,1.74047E+12,{},0
2025-02-25 13:37:22.467000+05:30,1.74047E+12,1.74047E+12,{},491
2025-02-25 13:37:22.456000+05:30,1.74047E+12,1.74047E+12,{},0
2025-02-25 13:37:22.306000+05:30,1.74047E+12,1.74047E+12,{},368
2025-02-25 13:37:22.156000+05:30,1.74047E+12,1.74047E+12,{},0
2025-02-25 13:37:22.006000+05:30,1.74047E+12,1.74047E+12,{},380
2025-02-25 13:37:21.995000+05:30,1.74047E+12,1.74047E+12,{},0
2025-02-25 13:37:21.845000+05:30,1.74047E+12,1.74047E+12,{},267
2025-02-25 13:37:21.695000+05:30,1.74047E+12,1.74047E+12,{},0
2025-02-25 13:37:21.545000+05:30,1.74047E+12,1.74047E+12,{},485
2025-02-25 13:37:21.534000+05:30,1.74047E+12,1.74047E+12,{},0
2025-02-25 13:37:21.384000+05:30,1.74047E+12,1.74047E+12,{},312
2025-02-25 13:37:21.234000+05:30,1.74047E+12,1.74047E+12,{},0
2025-02-25 13:37:21.084000+05:30,1.74047E+12,1.74047E+12,{},427
2025-02-25 13:37:21.073000+05:30,1.74047E+12,1.74047E+12,{},0
2025-02-25 13:37:20.923000+05:30,1.74047E+12,1.74047E+12,{},290
2025-02-25 13:37:20.773000+05:30,1.74047E+12,1.74047E+12,{},0
2025-02-25 13:37:20.623000+05:30,1.74047E+12,1.74047E+12,{},443
2025-02-25 13:37:20.612000+05:30,1.74047E+12,1.74047E+12,{},0
2025-02-25 13:37:20.462000+05:30,1.74047E+12,1.74047E+12,{},289
2025-02-25 13:37:20.312000+05:30,1.74047E+12,1.74047E+12,{},0
2025-02-25 13:37:20.162000+05:30,1.74047E+12,1.74047E+12,{},439
2025-02-25 13:37:20.151000+05:30,1.74047E+12,1.74047E+12,{},0
2025-02-25 13:37:20.001000+05:30,1.74047E+12,1.74047E+12,{},311
2025-02-25 13:37:19.851000+05:30,1.74047E+12,1.74047E+12,{},0
2025-02-25 13:37:19.701000+05:30,1.74047E+12,1.74047E+12,{},384
2025-02-25 13:37:19.690000+05:30,1.74047E+12,1.74047E+12,{},0
2025-02-25 13:37:19.540000+05:30,1.74047E+12,1.74047E+12,{},235
2025-02-25 13:37:19.390000+05:30,1.74047E+12,1.74047E+12,{},0
2025-02-25 13:37:19.240000+05:30,1.74047E+12,1.74047E+12,{},496
2025-02-25 13:37:19.229000+05:30,1.74047E+12,1.74047E+12,{},0
2025-02-25 13:37:19.079000+05:30,1.74047E+12,1.74047E+12,{},319
2025-02-25 13:37:18.929000+05:30,1.74047E+12,1.74047E+12,{},0
2025-02-25 13:37:18.779000+05:30,1.74047E+12,1.74047E+12,{},382
2025-02-25 13:37:18.768000+05:30,1.74047E+12,1.74047E+12,{},0
2025-02-25 13:37:18.618000+05:30,1.74047E+12,1.74047E+12,{},269
2025-02-25 13:37:18.468000+05:30,1.74047E+12,1.74047E+12,{},0
2025-02-25 13:37:18.318000+05:30,1.74047E+12,1.74047E+12,{},432
2025-02-25 13:37:18.307000+05:30,1.74047E+12,1.74047E+12,{},0
2025-02-25 13:37:18.157000+05:30,1.74047E+12,1.74047E+12,{},256
2025-02-25 13:37:18.007000+05:30,1.74047E+12,1.74047E+12,{},0
2025-02-25 13:37:17.857000+05:30,1.74047E+12,1.74047E+12,{},397
2025-02-25 13:37:17.846000+05:30,1.74047E+12,1.74047E+12,{},0
2025-02-25 13:37:17.696000+05:30,1.74047E+12,1.74047E+12,{},272
2025-02-25 13:37:17.546000+05:30,1.74047E+12,1.74047E+12,{},0
2025-02-25 13:37:17.396000+05:30,1.74047E+12,1.74047E+12,{},402
2025-02-25 13:37:17.385000+05:30,1.74047E+12,1.74047E+12,{},0
2025-02-25 13:37:17.235000+05:30,1.74047E+12,1.74047E+12,{},240
2025-02-25 13:37:17.085000+05:30,1.74047E+12,1.74047E+12,{},0
2025-02-25 13:37:16.935000+05:30,1.74047E+12,1.74047E+12,{},443
2025-02-25 13:37:16.924000+05:30,1.74047E+12,1.74047E+12,{},0
2025-02-25 13:37:16.774000+05:30,1.74047E+12,1.74047E+12,{},325
2025-02-25 13:37:16.624000+05:30,1.74047E+12,1.74047E+12,{},0
2025-02-25 13:37:16.474000+05:30,1.74047E+12,1.74047E+12,{},353
2025-02-25 13:37:16.463000+05:30,1.74047E+12,1.74047E+12,{},0
2025-02-25 13:37:16.313000+05:30,1.74047E+12,1.74047E+12,{},221
2025-02-25 13:37:16.163000+05:30,1.74047E+12,1.74047E+12,{},0
2025-02-25 13:37:16.013000+05:30,1.74047E+12,1.74047E+12,{},455
2025-02-25 13:37:16.002000+05:30,1.74047E+12,1.74047E+12,{},0
2025-02-25 13:37:15.852000+05:30,1.74047E+12,1.74047E+12,{},267
2025-02-25 13:37:15.702000+05:30,1.74047E+12,1.74047E+12,{},0
2025-02-25 13:37:15.552000+05:30,1.74047E+12,1.74047E+12,{},365
2025-02-25 13:37:15.541000+05:30,1.74047E+12,1.74047E+12,{},0
2025-02-25 13:37:15.391000+05:30,1.74047E+12,1.74047E+12,{},226
2025-02-25 13:37:15.241000+05:30,1.74047E+12,1.74047E+12,{},0
2025-02-25 13:37:15.091000+05:30,1.74047E+12,1.74047E+12,{},400
2025-02-25 13:37:15.080000+05:30,1.74047E+12,1.74047E+12,{},0
2025-02-25 13:37:14.930000+05:30,1.74047E+12,1.74047E+12,{},240
2025-02-25 13:37:14.780000+05:30,1.74047E+12,1.74047E+12,{},0
2025-02-25 13:37:14.630000+05:30,1.74047E+12,1.74047E+12,{},386
2025-02-25 13:37:14.619000+05:30,1.74047E+12,1.74047E+12,{},0
2025-02-25 13:37:14.469000+05:30,1.74047E+12,1.74047E+12,{},240
2025-02-25 13:37:14.319000+05:30,1.74047E+12,1.74047E+12,{},0
2025-02-25 13:37:14.169000+05:30,1.74047E+12,1.74047E+12,{},339
2025-02-25 13:37:14.158000+05:30,1.74047E+12,1.74047E+12,{},0
2025-02-25 13:37:14.008000+05:30,1.74047E+12,1.74047E+12,{},174
2025-02-25 13:37:13.858000+05:30,1.74047E+12,1.74047E+12,{},0
2025-02-25 13:37:13.708000+05:30,1.74047E+12,1.74047E+12,{},403
2025-02-25 13:37:13.697000+05:30,1.74047E+12,1.74047E+12,{},0
2025-02-25 13:37:13.547000+05:30,1.74047E+12,1.74047E+12,{},265
2025-02-25 13:37:13.397000+05:30,1.74047E+12,1.74047E+12,{},0
2025-02-25 13:37:13.247000+05:30,1.74047E+12,1.74047E+12,{},314
2025-02-25 13:37:13.236000+05:30,1.74047E+12,1.74047E+12,{},5
2025-02-25 13:37:13.086000+05:30,1.74047E+12,1.74047E+12,{},190
2025-02-25 13:37:12.936000+05:30,1.74047E+12,1.74047E+12,{},0
2025-02-25 13:37:12.786000+05:30,1.74047E+12,1.74047E+12,{},379
2025-02-25 13:37:12.775000+05:30,1.74047E+12,1.74047E+12,{},0
2025-02-25 13:37:12.625000+05:30,1.74047E+12,1.74047E+12,{},203
2025-02-25 13:37:12.475000+05:30,1.74047E+12,1.74047E+12,{},0
2025-02-25 13:37:12.325000+05:30,1.74047E+12,1.74047E+12,{},323
2025-02-25 13:37:12.314000+05:30,1.74047E+12,1.74047E+12,{},0
2025-02-25 13:37:12.164000+05:30,1.74047E+12,1.74047E+12,{},187
2025-02-25 13:37:12.014000+05:30,1.74047E+12,1.74047E+12,{},0
2025-02-25 13:37:11.864000+05:30,1.74047E+12,1.74047E+12,{},304
2025-02-25 13:37:11.853000+05:30,1.74047E+12,1.74047E+12,{},0
2025-02-25 13:37:11.703000+05:30,1.74047E+12,1.74047E+12,{},176
2025-02-25 13:37:11.553000+05:30,1.74047E+12,1.74047E+12,{},0
2025-02-25 13:37:11.403000+05:30,1.74047E+12,1.74047E+12,{},314
2025-02-25 13:37:11.392000+05:30,1.74047E+12,1.74047E+12,{},0
2025-02-25 13:37:11.242000+05:30,1.74047E+12,1.74047E+12,{},213
2025-02-25 13:37:11.092000+05:30,1.74047E+12,1.74047E+12,{},0
2025-02-25 13:37:10.942000+05:30,1.74047E+12,1.74047E+12,{},271
2025-02-25 13:37:10.931000+05:30,1.74047E+12,1.74047E+12,{},32
2025-02-25 13:37:10.781000+05:30,1.74047E+12,1.74047E+12,{},122
2025-02-25 13:37:10.631000+05:30,1.74047E+12,1.74047E+12,{},0
2025-02-25 13:37:10.481000+05:30,1.74047E+12,1.74047E+12,{},343
2025-02-25 13:37:10.470000+05:30,1.74047E+12,1.74047E+12,{},0
2025-02-25 13:37:10.320000+05:30,1.74047E+12,1.74047E+12,{},186
2025-02-25 13:37:10.170000+05:30,1.74047E+12,1.74047E+12,{},0
2025-02-25 13:37:10.020000+05:30,1.74047E+12,1.74047E+12,{},245
2025-02-25 13:37:10.009000+05:30,1.74047E+12,1.74047E+12,{},112
2025-02-25 13:37:09.859000+05:30,1.74047E+12,1.74047E+12,{},149
2025-02-25 13:37:09.709000+05:30,1.74047E+12,1.74047E+12,{},0
2025-02-25 13:37:09.559000+05:30,1.74047E+12,1.74047E+12,{},290
2025-02-25 13:37:09.548000+05:30,1.74047E+12,1.74047E+12,{},0
2025-02-25 13:37:09.398000+05:30,1.74047E+12,1.74047E+12,{},144
2025-02-25 13:37:09.248000+05:30,1.74047E+12,1.74047E+12,{},0
2025-02-25 13:37:09.098000+05:30,1.74047E+12,1.74047E+12,{},272
2025-02-25 13:37:09.087000+05:30,1.74047E+12,1.74047E+12,{},35
2025-02-25 13:37:08.937000+05:30,1.74047E+12,1.74047E+12,{},141
2025-02-25 13:37:08.787000+05:30,1.74047E+12,1.74047E+12,{},0
2025-02-25 13:37:08.637000+05:30,1.74047E+12,1.74047E+12,{},242
2025-02-25 13:37:08.626000+05:30,1.74047E+12,1.74047E+12,{},78
2025-02-25 13:37:08.476000+05:30,1.74047E+12,1.74047E+12,{},101
2025-02-25 13:37:08.326000+05:30,1.74047E+12,1.74047E+12,{},0
2025-02-25 13:37:08.176000+05:30,1.74047E+12,1.74047E+12,{},254
2025-02-25 13:37:08.165000+05:30,1.74047E+12,1.74047E+12,{},35
2025-02-25 13:37:08.015000+05:30,1.74047E+12,1.74047E+12,{},166
2025-02-25 13:37:07.865000+05:30,1.74047E+12,1.74047E+12,{},0
2025-02-25 13:37:07.715000+05:30,1.74047E+12,1.74047E+12,{},161
2025-02-25 13:37:07.704000+05:30,1.74047E+12,1.74047E+12,{},176
2025-02-25 13:37:07.554000+05:30,1.74047E+12,1.74047E+12,{},92
2025-02-25 13:37:07.404000+05:30,1.74047E+12,1.74047E+12,{},0
2025-02-25 13:37:07.254000+05:30,1.74047E+12,1.74047E+12,{},237
2025-02-25 13:37:07.243000+05:30,1.74047E+12,1.74047E+12,{},34
2025-02-25 13:37:07.093000+05:30,1.74047E+12,1.74047E+12,{},107
2025-02-25 13:37:06.943000+05:30,1.74047E+12,1.74047E+12,{},89
2025-02-25 13:37:06.793000+05:30,1.74047E+12,1.74047E+12,{},185
2025-02-25 13:37:06.782000+05:30,1.74047E+12,1.74047E+12,{},209
2025-02-25 13:37:06.632000+05:30,1.74047E+12,1.74047E+12,{},82
2025-02-25 13:37:06.482000+05:30,1.74047E+12,1.74047E+12,{},0
2025-02-25 13:37:06.332000+05:30,1.74047E+12,1.74047E+12,{},185
2025-02-25 13:37:06.321000+05:30,1.74047E+12,1.74047E+12,{},144
2025-02-25 13:37:06.171000+05:30,1.74047E+12,1.74047E+12,{},80
2025-02-25 13:37:06.021000+05:30,1.74047E+12,1.74047E+12,{},48
2025-02-25 13:37:05.871000+05:30,1.74047E+12,1.74047E+12,{},197
2025-02-25 13:37:05.860000+05:30,1.74047E+12,1.74047E+12,{},146
2025-02-25 13:37:05.710000+05:30,1.74047E+12,1.74047E+12,{},91
2025-02-25 13:37:05.560000+05:30,1.74047E+12,1.74047E+12,{},77
2025-02-25 13:37:05.410000+05:30,1.74047E+12,1.74047E+12,{},158
2025-02-25 13:37:05.399000+05:30,1.74047E+12,1.74047E+12,{},237
2025-02-25 13:37:05.249000+05:30,1.74047E+12,1.74047E+12,{},30
2025-02-25 13:37:05.099000+05:30,1.74047E+12,1.74047E+12,{},30
2025-02-25 13:37:04.949000+05:30,1.74047E+12,1.74047E+12,{},216
2025-02-25 13:37:04.938000+05:30,1.74047E+12,1.74047E+12,{},137
2025-02-25 13:37:04.788000+05:30,1.74047E+12,1.74047E+12,{},73
2025-02-25 13:37:04.638000+05:30,1.74047E+12,1.74047E+12,{},246
2025-02-25 13:37:04.488000+05:30,1.74047E+12,1.74047E+12,{},56
2025-02-25 13:37:04.477000+05:30,1.74047E+12,1.74047E+12,{},560
2025-02-25 13:37:04.327000+05:30,1.74047E+12,1.74047E+12,{},0
2025-02-25 13:37:04.177000+05:30,1.74047E+12,1.74047E+12,{},333
2025-02-25 13:37:04.027000+05:30,1.74047E+12,1.74047E+12,{},98
2025-02-25 13:37:04.016000+05:30,1.74047E+12,1.74047E+12,{},496
2025-02-25 13:37:03.866000+05:30,1.74047E+12,1.74047E+12,{},0
2025-02-25 13:37:03.716000+05:30,1.74047E+12,1.74047E+12,{},545
2025-02-25 13:37:03.566000+05:30,1.74047E+12,1.74047E+12,{},82
2025-02-25 13:37:03.555000+05:30,1.74047E+12,1.74047E+12,{},631
2025-02-25 13:37:03.405000+05:30,1.74047E+12,1.74047E+12,{},0
2025-02-25 13:37:03.255000+05:30,1.74047E+12,1.74047E+12,{},474
2025-02-25 13:37:03.105000+05:30,1.74047E+12,1.74047E+12,{},62
2025-02-25 13:37:03.094000+05:30,1.74047E+12,1.74047E+12,{},649
2025-02-25 13:37:02.944000+05:30,1.74047E+12,1.74047E+12,{},0
2025-02-25 13:37:02.794000+05:30,1.74047E+12,1.74047E+12,{},537
2025-02-25 13:37:02.644000+05:30,1.74047E+12,1.74047E+12,{},48
2025-02-25 13:37:02.633000+05:30,1.74047E+12,1.74047E+12,{},638
2025-02-25 13:37:02.483000+05:30,1.74047E+12,1.74047E+12,{},0
2025-02-25 13:37:02.333000+05:30,1.74047E+12,1.74047E+12,{},624
2025-02-25 13:37:02.183000+05:30,1.74047E+12,1.74047E+12,{},16
2025-02-25 13:37:02.172000+05:30,1.74047E+12,1.74047E+12,{},782
2025-02-25 13:37:02.022000+05:30,1.74047E+12,1.74047E+12,{},0
2025-02-25 13:37:01.872000+05:30,1.74047E+12,1.74047E+12,{},511
2025-02-25 13:37:01.722000+05:30,1.74047E+12,1.74047E+12,{},50
2025-02-25 13:37:01.711000+05:30,1.74047E+12,1.74047E+12,{},614
2025-02-25 13:37:01.561000+05:30,1.74047E+12,1.74047E+12,{},0
2025-02-25 13:37:01.411000+05:30,1.74047E+12,1.74047E+12,{},719
2025-02-25 13:37:01.261000+05:30,1.74047E+12,1.74047E+12,{},0
2025-02-25 13:37:01.250000+05:30,1.74047E+12,1.74047E+12,{},807
2025-02-25 13:37:01.100000+05:30,1.74047E+12,1.74047E+12,{},0
2025-02-25 13:37:00.950000+05:30,1.74047E+12,1.74047E+12,{},573
2025-02-25 13:37:00.800000+05:30,1.74047E+12,1.74047E+12,{},0
2025-02-25 13:37:00.789000+05:30,1.74047E+12,1.74047E+12,{},738
2025-02-25 13:37:00.639000+05:30,1.74047E+12,1.74047E+12,{},0
2025-02-25 13:37:00.489000+05:30,1.74047E+12,1.74047E+12,{},721
2025-02-25 13:37:00.339000+05:30,1.74047E+12,1.74047E+12,{},0
2025-02-25 13:37:00.328000+05:30,1.74047E+12,1.74047E+12,{},759
2025-02-25 13:37:00.178000+05:30,1.74047E+12,1.74047E+12,{},0
2025-02-25 13:37:00.028000+05:30,1.74047E+12,1.74047E+12,{},689
2025-02-25 13:36:59.878000+05:30,1.74047E+12,1.74047E+12,{},0
2025-02-25 13:36:59.867000+05:30,1.74047E+12,1.74047E+12,{},804
2025-02-25 13:36:59.717000+05:30,1.74047E+12,1.74047E+12,{},0
2025-02-25 13:36:59.567000+05:30,1.74047E+12,1.74047E+12,{},688
2025-02-25 13:36:59.417000+05:30,1.74047E+12,1.74047E+12,{},0
2025-02-25 13:36:59.406000+05:30,1.74047E+12,1.74047E+12,{},723
2025-02-25 13:36:59.256000+05:30,1.74047E+12,1.74047E+12,{},0
2025-02-25 13:36:59.106000+05:30,1.74047E+12,1.74047E+12,{},810
2025-02-25 13:36:58.956000+05:30,1.74047E+12,1.74047E+12,{},0
2025-02-25 13:36:58.945000+05:30,1.74047E+12,1.74047E+12,{},909
2025-02-25 13:36:58.795000+05:30,1.74047E+12,1.74047E+12,{},0
2025-02-25 13:36:58.645000+05:30,1.74047E+12,1.74047E+12,{},689
2025-02-25 13:36:58.495000+05:30,1.74047E+12,1.74047E+12,{},0
2025-02-25 13:36:58.484000+05:30,1.74047E+12,1.74047E+12,{},754
2025-02-25 13:36:58.334000+05:30,1.74047E+12,1.74047E+12,{},0
2025-02-25 13:36:58.184000+05:30,1.74047E+12,1.74047E+12,{},881
2025-02-25 13:36:58.034000+05:30,1.74047E+12,1.74047E+12,{},0
2025-02-25 13:36:58.023000+05:30,1.74047E+12,1.74047E+12,{},871
2025-02-25 13:36:57.873000+05:30,1.74047E+12,1.74047E+12,{},0
2025-02-25 13:36:57.723000+05:30,1.74047E+12,1.74047E+12,{},759
2025-02-25 13:36:57.573000+05:30,1.74047E+12,1.74047E+12,{},0
2025-02-25 13:36:57.562000+05:30,1.74047E+12,1.74047E+12,{},816
2025-02-25 13:36:57.412000+05:30,1.74047E+12,1.74047E+12,{},0
2025-02-25 13:36:57.262000+05:30,1.74047E+12,1.74047E+12,{},417
2025-02-25 13:36:57.112000+05:30,1.74047E+12,1.74047E+12,{},0
2025-02-25 13:36:57.101000+05:30,1.74047E+12,1.74047E+12,{},437
2025-02-25 13:36:56.951000+05:30,1.74047E+12,1.74047E+12,{},0
2025-02-25 13:36:56.801000+05:30,1.74047E+12,1.74047E+12,{},419
2025-02-25 13:36:56.651000+05:30,1.74047E+12,1.74047E+12,{},0
2025-02-25 13:36:56.640000+05:30,1.74047E+12,1.74047E+12,{},507
2025-02-25 13:36:56.490000+05:30,1.74047E+12,1.74047E+12,{},0
2025-02-25 13:36:56.340000+05:30,1.74047E+12,1.74047E+12,{},368
2025-02-25 13:36:56.190000+05:30,1.74047E+12,1.74047E+12,{},0
2025-02-25 13:36:56.179000+05:30,1.74047E+12,1.74047E+12,{},373
2025-02-25 13:36:56.029000+05:30,1.74047E+12,1.74047E+12,{},0
2025-02-25 13:36:55.879000+05:30,1.74047E+12,1.74047E+12,{},525
2025-02-25 13:36:55.729000+05:30,1.74047E+12,1.74047E+12,{},0
2025-02-25 13:36:55.718000+05:30,1.74047E+12,1.74047E+12,{},575
2025-02-25 13:36:55.568000+05:30,1.74047E+12,1.74047E+12,{},0
2025-02-25 13:36:55.418000+05:30,1.74047E+12,1.74047E+12,{},359
2025-02-25 13:36:55.268000+05:30,1.74047E+12,1.74047E+12,{},0
2025-02-25 13:36:55.257000+05:30,1.74047E+12,1.74047E+12,{},446
2025-02-25 13:36:55.107000+05:30,1.74047E+12,1.74047E+12,{},0
2025-02-25 13:36:54.957000+05:30,1.74047E+12,1.74047E+12,{},511
2025-02-25 13:36:54.807000+05:30,1.74047E+12,1.74047E+12,{},0
2025-02-25 13:36:54.796000+05:30,1.74047E+12,1.74047E+12,{},511
2025-02-25 13:36:54.646000+05:30,1.74047E+12,1.74047E+12,{},0
2025-02-25 13:36:54.496000+05:30,1.74047E+12,1.74047E+12,{},459
2025-02-25 13:36:54.346000+05:30,1.74047E+12,1.74047E+12,{},0
2025-02-25 13:36:54.335000+05:30,1.74047E+12,1.74047E+12,{},493
2025-02-25 13:36:54.185000+05:30,1.74047E+12,1.74047E+12,{},0
2025-02-25 13:36:54.035000+05:30,1.74047E+12,1.74047E+12,{},484
2025-02-25 13:36:53.885000+05:30,1.74047E+12,1.74047E+12,{},0
2025-02-25 13:36:53.874000+05:30,1.74047E+12,1.74047E+12,{},447
2025-02-25 13:36:53.724000+05:30,1.74047E+12,1.74047E+12,{},0
2025-02-25 13:36:53.574000+05:30,1.74047E+12,1.74047E+12,{},527
2025-02-25 13:36:53.424000+05:30,1.74047E+12,1.74047E+12,{},0
2025-02-25 13:36:53.413000+05:30,1.74047E+12,1.74047E+12,{},558
2025-02-25 13:36:53.263000+05:30,1.74047E+12,1.74047E+12,{},0
2025-02-25 13:36:53.113000+05:30,1.74047E+12,1.74047E+12,{},431
2025-02-25 13:36:52.963000+05:30,1.74047E+12,1.74047E+12,{},0
2025-02-25 13:36:52.952000+05:30,1.74047E+12,1.74047E+12,{},397
2025-02-25 13:36:52.802000+05:30,1.74047E+12,1.74047E+12,{},0
2025-02-25 13:36:52.652000+05:30,1.74047E+12,1.74047E+12,{},586
2025-02-25 13:36:52.502000+05:30,1.74047E+12,1.74047E+12,{},0
2025-02-25 13:36:52.491000+05:30,1.74047E+12,1.74047E+12,{},503
2025-02-25 13:36:52.341000+05:30,1.74047E+12,1.74047E+12,{},0
2025-02-25 13:36:52.191000+05:30,1.74047E+12,1.74047E+12,{},437
2025-02-25 13:36:52.041000+05:30,1.74047E+12,1.74047E+12,{},0
2025-02-25 13:36:52.030000+05:30,1.74047E+12,1.74047E+12,{},418
2025-02-25 13:36:51.880000+05:30,1.74047E+12,1.74047E+12,{},0
2025-02-25 13:36:51.730000+05:30,1.74047E+12,1.74047E+12,{},506
2025-02-25 13:36:51.580000+05:30,1.74047E+12,1.74047E+12,{},0
2025-02-25 13:36:51.569000+05:30,1.74047E+12,1.74047E+12,{},435
2025-02-25 13:36:51.419000+05:30,1.74047E+12,1.74047E+12,{},0
2025-02-25 13:36:51.269000+05:30,1.74047E+12,1.74047E+12,{},447
2025-02-25 13:36:51.119000+05:30,1.74047E+12,1.74047E+12,{},0
2025-02-25 13:36:51.108000+05:30,1.74047E+12,1.74047E+12,{},432
2025-02-25 13:36:50.958000+05:30,1.74047E+12,1.74047E+12,{},0
2025-02-25 13:36:50.808000+05:30,1.74047E+12,1.74047E+12,{},430
2025-02-25 13:36:50.658000+05:30,1.74047E+12,1.74047E+12,{},0
2025-02-25 13:36:50.647000+05:30,1.74047E+12,1.74047E+12,{},346
2025-02-25 13:36:50.497000+05:30,1.74047E+12,1.74047E+12,{},0
2025-02-25 13:36:50.347000+05:30,1.74047E+12,1.74047E+12,{},477
2025-02-25 13:36:50.197000+05:30,1.74047E+12,1.74047E+12,{},0
2025-02-25 13:36:50.186000+05:30,1.74047E+12,1.74047E+12,{},449
2025-02-25 13:36:50.036000+05:30,1.74047E+12,1.74047E+12,{},0
2025-02-25 13:36:49.886000+05:30,1.74047E+12,1.74047E+12,{},336
2025-02-25 13:36:49.736000+05:30,1.74047E+12,1.74047E+12,{},0
2025-02-25 13:36:49.725000+05:30,1.74047E+12,1.74047E+12,{},334
2025-02-25 13:36:49.575000+05:30,1.74047E+12,1.74047E+12,{},0
2025-02-25 13:36:49.425000+05:30,1.74047E+12,1.74047E+12,{},479
2025-02-25 13:36:49.275000+05:30,1.74047E+12,1.74047E+12,{},0
2025-02-25 13:36:49.264000+05:30,1.74047E+12,1.74047E+12,{},462
2025-02-25 13:36:49.114000+05:30,1.74047E+12,1.74047E+12,{},0
2025-02-25 13:36:48.964000+05:30,1.74047E+12,1.74047E+12,{},492
2025-02-25 13:36:48.814000+05:30,1.74047E+12,1.74047E+12,{},0
2025-02-25 13:36:48.803000+05:30,1.74047E+12,1.74047E+12,{},422
2025-02-25 13:36:48.653000+05:30,1.74047E+12,1.74047E+12,{},0
2025-02-25 13:36:48.503000+05:30,1.74047E+12,1.74047E+12,{},511
2025-02-25 13:36:48.353000+05:30,1.74047E+12,1.74047E+12,{},0
2025-02-25 13:36:48.342000+05:30,1.74047E+12,1.74047E+12,{},384
2025-02-25 13:36:48.192000+05:30,1.74047E+12,1.74047E+12,{},0
2025-02-25 13:36:48.042000+05:30,1.74047E+12,1.74047E+12,{},482
2025-02-25 13:36:47.892000+05:30,1.74047E+12,1.74047E+12,{},0
2025-02-25 13:36:47.881000+05:30,1.74047E+12,1.74047E+12,{},350
2025-02-25 13:36:47.731000+05:30,1.74047E+12,1.74047E+12,{},0
2025-02-25 13:36:47.581000+05:30,1.74047E+12,1.74047E+12,{},426
2025-02-25 13:36:47.431000+05:30,1.74047E+12,1.74047E+12,{},0
2025-02-25 13:36:47.420000+05:30,1.74047E+12,1.74047E+12,{},238
2025-02-25 13:36:47.270000+05:30,1.74047E+12,1.74047E+12,{},0
2025-02-25 13:36:47.120000+05:30,1.74047E+12,1.74047E+12,{},423
2025-02-25 13:36:46.970000+05:30,1.74047E+12,1.74047E+12,{},0
2025-02-25 13:36:46.959000+05:30,1.74047E+12,1.74047E+12,{},294
2025-02-25 13:36:46.809000+05:30,1.74047E+12,1.74047E+12,{},0
2025-02-25 13:36:46.659000+05:30,1.74047E+12,1.74047E+12,{},277
2025-02-25 13:36:46.509000+05:30,1.74047E+12,1.74047E+12,{},0
2025-02-25 13:36:46.498000+05:30,1.74047E+12,1.74047E+12,{},170
2025-02-25 13:36:46.348000+05:30,1.74047E+12,1.74047E+12,{},0
2025-02-25 13:36:46.198000+05:30,1.74047E+12,1.74047E+12,{},297
2025-02-25 13:36:46.048000+05:30,1.74047E+12,1.74047E+12,{},0
2025-02-25 13:36:46.037000+05:30,1.74047E+12,1.74047E+12,{},151
2025-02-25 13:36:45.887000+05:30,1.74047E+12,1.74047E+12,{},139
2025-02-25 13:36:45.737000+05:30,1.74047E+12,1.74047E+12,{},213
2025-02-25 13:36:45.587000+05:30,1.74047E+12,1.74047E+12,{},0
2025-02-25 13:36:45.576000+05:30,1.74047E+12,1.74047E+12,{},177
2025-02-25 13:36:45.426000+05:30,1.74047E+12,1.74047E+12,{},0
2025-02-25 13:36:45.276000+05:30,1.74047E+12,1.74047E+12,{},246
2025-02-25 13:36:45.126000+05:30,1.74047E+12,1.74047E+12,{},0
2025-02-25 13:36:45.115000+05:30,1.74047E+12,1.74047E+12,{},144
2025-02-25 13:36:44.965000+05:30,1.74047E+12,1.74047E+12,{},0
2025-02-25 13:36:44.815000+05:30,1.74047E+12,1.74047E+12,{},208
2025-02-25 13:36:44.665000+05:30,1.74047E+12,1.74047E+12,{},0
2025-02-25 13:36:44.654000+05:30,1.74047E+12,1.74047E+12,{},148
2025-02-25 13:36:44.504000+05:30,1.74047E+12,1.74047E+12,{},46
2025-02-25 13:36:44.354000+05:30,1.74047E+12,1.74047E+12,{},144
2025-02-25 13:36:44.204000+05:30,1.74047E+12,1.74047E+12,{},0
2025-02-25 13:36:44.193000+05:30,1.74047E+12,1.74047E+12,{},64
2025-02-25 13:36:44.043000+05:30,1.74047E+12,1.74047E+12,{},39
2025-02-25 13:36:43.893000+05:30,1.74047E+12,1.74047E+12,{},175
2025-02-25 13:36:43.743000+05:30,1.74047E+12,1.74047E+12,{},0
2025-02-25 13:36:43.732000+05:30,1.74047E+12,1.74047E+12,{},88
2025-02-25 13:36:43.582000+05:30,1.74047E+12,1.74047E+12,{},162
2025-02-25 13:36:43.432000+05:30,1.74047E+12,1.74047E+12,{},99
2025-02-25 13:36:43.282000+05:30,1.74047E+12,1.74047E+12,{},0
2025-02-25 13:36:43.271000+05:30,1.74047E+12,1.74047E+12,{},34
2025-02-25 13:36:43.121000+05:30,1.74047E+12,1.74047E+12,{},59
2025-02-25 13:36:42.971000+05:30,1.74047E+12,1.74047E+12,{},115
2025-02-25 13:36:42.821000+05:30,1.74047E+12,1.74047E+12,{},9
2025-02-25 13:36:42.810000+05:30,1.74047E+12,1.74047E+12,{},10
2025-02-25 13:36:42.660000+05:30,1.74047E+12,1.74047E+12,{},272
2025-02-25 13:36:42.510000+05:30,1.74047E+12,1.74047E+12,{},74
2025-02-25 13:36:42.360000+05:30,1.74047E+12,1.74047E+12,{},0
2025-02-25 13:36:42.349000+05:30,1.74047E+12,1.74047E+12,{},0
2025-02-25 13:36:42.199000+05:30,1.74047E+12,1.74047E+12,{},211
2025-02-25 13:36:42.049000+05:30,1.74047E+12,1.74047E+12,{},48
2025-02-25 13:36:41.899000+05:30,1.74047E+12,1.74047E+12,{},64
2025-02-25 13:36:41.888000+05:30,1.74047E+12,1.74047E+12,{},0
2025-02-25 13:36:41.738000+05:30,1.74047E+12,1.74047E+12,{},290
2025-02-25 13:36:41.588000+05:30,1.74047E+12,1.74047E+12,{},26
2025-02-25 13:36:41.438000+05:30,1.74047E+12,1.74047E+12,{},78
2025-02-25 13:36:41.427000+05:30,1.74047E+12,1.74047E+12,{},0
2025-02-25 13:36:41.277000+05:30,1.74047E+12,1.74047E+12,{},403
2025-02-25 13:36:41.127000+05:30,1.74047E+12,1.74047E+12,{},0
2025-02-25 13:36:40.977000+05:30,1.74047E+12,1.74047E+12,{},107
2025-02-25 13:36:40.966000+05:30,1.74047E+12,1.74047E+12,{},0
2025-02-25 13:36:40.816000+05:30,1.74047E+12,1.74047E+12,{},321
2025-02-25 13:36:40.666000+05:30,1.74047E+12,1.74047E+12,{},0
2025-02-25 13:36:40.516000+05:30,1.74047E+12,1.74047E+12,{},321
2025-02-25 13:36:40.505000+05:30,1.74047E+12,1.74047E+12,{},0
2025-02-25 13:36:40.355000+05:30,1.74047E+12,1.74047E+12,{},511
2025-02-25 13:36:40.205000+05:30,1.74047E+12,1.74047E+12,{},0
2025-02-25 13:36:40.055000+05:30,1.74047E+12,1.74047E+12,{},144
2025-02-25 13:36:40.044000+05:30,1.74047E+12,1.74047E+12,{},0
2025-02-25 13:36:39.894000+05:30,1.74047E+12,1.74047E+12,{},379
2025-02-25 13:36:39.744000+05:30,1.74047E+12,1.74047E+12,{},0
2025-02-25 13:36:39.594000+05:30,1.74047E+12,1.74047E+12,{},359
2025-02-25 13:36:39.583000+05:30,1.74047E+12,1.74047E+12,{},0
2025-02-25 13:36:39.433000+05:30,1.74047E+12,1.74047E+12,{},523
2025-02-25 13:36:39.283000+05:30,1.74047E+12,1.74047E+12,{},0
2025-02-25 13:36:39.133000+05:30,1.74047E+12,1.74047E+12,{},299
2025-02-25 13:36:39.122000+05:30,1.74047E+12,1.74047E+12,{},0
2025-02-25 13:36:38.972000+05:30,1.74047E+12,1.74047E+12,{},551
2025-02-25 13:36:38.822000+05:30,1.74047E+12,1.74047E+12,{},0
2025-02-25 13:36:38.672000+05:30,1.74047E+12,1.74047E+12,{},461
2025-02-25 13:36:38.661000+05:30,1.74047E+12,1.74047E+12,{},0
2025-02-25 13:36:38.511000+05:30,1.74047E+12,1.74047E+12,{},549
2025-02-25 13:36:38.361000+05:30,1.74047E+12,1.74047E+12,{},0
2025-02-25 13:36:38.211000+05:30,1.74047E+12,1.74047E+12,{},462
2025-02-25 13:36:38.200000+05:30,1.74047E+12,1.74047E+12,{},0
2025-02-25 13:36:38.050000+05:30,1.74047E+12,1.74047E+12,{},658
2025-02-25 13:36:37.900000+05:30,1.74047E+12,1.74047E+12,{},0
2025-02-25 13:36:37.750000+05:30,1.74047E+12,1.74047E+12,{},496
2025-02-25 13:36:37.739000+05:30,1.74047E+12,1.74047E+12,{},0
2025-02-25 13:36:37.589000+05:30,1.74047E+12,1.74047E+12,{},707
2025-02-25 13:36:37.439000+05:30,1.74047E+12,1.74047E+12,{},0
2025-02-25 13:36:37.289000+05:30,1.74047E+12,1.74047E+12,{},816
2025-02-25 13:36:37.278000+05:30,1.74047E+12,1.74047E+12,{},0
2025-02-25 13:36:37.128000+05:30,1.74047E+12,1.74047E+12,{},909
2025-02-25 13:36:36.978000+05:30,1.74047E+12,1.74047E+12,{},0
2025-02-25 13:36:36.828000+05:30,1.74047E+12,1.74047E+12,{},698
2025-02-25 13:36:36.817000+05:30,1.74047E+12,1.74047E+12,{},0
2025-02-25 13:36:36.667000+05:30,1.74047E+12,1.74047E+12,{},783
2025-02-25 13:36:36.517000+05:30,1.74047E+12,1.74047E+12,{},0
2025-02-25 13:36:36.367000+05:30,1.74047E+12,1.74047E+12,{},830
2025-02-25 13:36:36.356000+05:30,1.74047E+12,1.74047E+12,{},0
2025-02-25 13:36:36.206000+05:30,1.74047E+12,1.74047E+12,{},850
2025-02-25 13:36:36.056000+05:30,1.74047E+12,1.74047E+12,{},0
2025-02-25 13:36:35.906000+05:30,1.74047E+12,1.74047E+12,{},752
2025-02-25 13:36:35.895000+05:30,1.74047E+12,1.74047E+12,{},0
2025-02-25 13:36:35.745000+05:30,1.74047E+12,1.74047E+12,{},838
2025-02-25 13:36:35.595000+05:30,1.74047E+12,1.74047E+12,{},0
2025-02-25 13:36:35.445000+05:30,1.74047E+12,1.74047E+12,{},799
2025-02-25 13:36:35.434000+05:30,1.74047E+12,1.74047E+12,{},0
2025-02-25 13:36:35.284000+05:30,1.74047E+12,1.74047E+12,{},795
2025-02-25 13:36:35.134000+05:30,1.74047E+12,1.74047E+12,{},0
2025-02-25 13:36:34.984000+05:30,1.74047E+12,1.74047E+12,{},861
2025-02-25 13:36:34.973000+05:30,1.74047E+12,1.74047E+12,{},0
2025-02-25 13:36:34.823000+05:30,1.74047E+12,1.74047E+12,{},880
2025-02-25 13:36:34.673000+05:30,1.74047E+12,1.74047E+12,{},0
2025-02-25 13:36:34.523000+05:30,1.74047E+12,1.74047E+12,{},737
2025-02-25 13:36:34.512000+05:30,1.74047E+12,1.74047E+12,{},0
2025-02-25 13:36:34.362000+05:30,1.74047E+12,1.74047E+12,{},705
2025-02-25 13:36:34.212000+05:30,1.74047E+12,1.74047E+12,{},0
2025-02-25 13:36:34.062000+05:30,1.74047E+12,1.74047E+12,{},875
2025-02-25 13:36:34.051000+05:30,1.74047E+12,1.74047E+12,{},0
2025-02-25 13:36:33.901000+05:30,1.74047E+12,1.74047E+12,{},839
2025-02-25 13:36:33.751000+05:30,1.74047E+12,1.74047E+12,{},0
2025-02-25 13:36:33.601000+05:30,1.74047E+12,1.74047E+12,{},719
2025-02-25 13:36:33.590000+05:30,1.74047E+12,1.74047E+12,{},0
2025-02-25 13:36:33.440000+05:30,1.74047E+12,1.74047E+12,{},737
2025-02-25 13:36:33.290000+05:30,1.74047E+12,1.74047E+12,{},0
2025-02-25 13:36:33.140000+05:30,1.74047E+12,1.74047E+12,{},823
2025-02-25 13:36:33.129000+05:30,1.74047E+12,1.74047E+12,{},0
2025-02-25 13:36:32.979000+05:30,1.74047E+12,1.74047E+12,{},729
2025-02-25 13:36:32.829000+05:30,1.74047E+12,1.74047E+12,{},0
2025-02-25 13:36:32.679000+05:30,1.74047E+12,1.74047E+12,{},653
2025-02-25 13:36:32.668000+05:30,1.74047E+12,1.74047E+12,{},0
2025-02-25 13:36:32.518000+05:30,1.74047E+12,1.74047E+12,{},640
2025-02-25 13:36:32.368000+05:30,1.74047E+12,1.74047E+12,{},0
2025-02-25 13:36:32.218000+05:30,1.74047E+12,1.74047E+12,{},577
2025-02-25 13:36:32.207000+05:30,1.74047E+12,1.74047E+12,{},0
2025-02-25 13:36:32.057000+05:30,1.74047E+12,1.74047E+12,{},556
2025-02-25 13:36:31.907000+05:30,1.74047E+12,1.74047E+12,{},0
2025-02-25 13:36:31.757000+05:30,1.74047E+12,1.74047E+12,{},668
2025-02-25 13:36:31.746000+05:30,1.74047E+12,1.74047E+12,{},0
2025-02-25 13:36:31.596000+05:30,1.74047E+12,1.74047E+12,{},656
2025-02-25 13:36:31.446000+05:30,1.74047E+12,1.74047E+12,{},0
2025-02-25 13:36:31.296000+05:30,1.74047E+12,1.74047E+12,{},496
2025-02-25 13:36:31.285000+05:30,1.74047E+12,1.74047E+12,{},0
2025-02-25 13:36:31.135000+05:30,1.74047E+12,1.74047E+12,{},469
2025-02-25 13:36:30.985000+05:30,1.74047E+12,1.74047E+12,{},0
2025-02-25 13:36:30.835000+05:30,1.74047E+12,1.74047E+12,{},646
2025-02-25 13:36:30.824000+05:30,1.74047E+12,1.74047E+12,{},0
2025-02-25 13:36:30.674000+05:30,1.74047E+12,1.74047E+12,{},571
2025-02-25 13:36:30.524000+05:30,1.74047E+12,1.74047E+12,{},0
2025-02-25 13:36:30.374000+05:30,1.74047E+12,1.74047E+12,{},491
2025-02-25 13:36:30.363000+05:30,1.74047E+12,1.74047E+12,{},0
2025-02-25 13:36:30.213000+05:30,1.74047E+12,1.74047E+12,{},491
2025-02-25 13:36:30.063000+05:30,1.74047E+12,1.74047E+12,{},0
2025-02-25 13:36:29.913000+05:30,1.74047E+12,1.74047E+12,{},529
2025-02-25 13:36:29.902000+05:30,1.74047E+12,1.74047E+12,{},0
2025-02-25 13:36:29.752000+05:30,1.74047E+12,1.74047E+12,{},471
2025-02-25 13:36:29.602000+05:30,1.74047E+12,1.74047E+12,{},0
2025-02-25 13:36:29.452000+05:30,1.74047E+12,1.74047E+12,{},554
2025-02-25 13:36:29.441000+05:30,1.74047E+12,1.74047E+12,{},0
2025-02-25 13:36:29.291000+05:30,1.74047E+12,1.74047E+12,{},527
2025-02-25 13:36:29.141000+05:30,1.74047E+12,1.74047E+12,{},0
2025-02-25 13:36:28.991000+05:30,1.74047E+12,1.74047E+12,{},556
2025-02-25 13:36:28.980000+05:30,1.74047E+12,1.74047E+12,{},0
2025-02-25 13:36:28.830000+05:30,1.74047E+12,1.74047E+12,{},449
2025-02-25 13:36:28.680000+05:30,1.74047E+12,1.74047E+12,{},0
2025-02-25 13:36:28.530000+05:30,1.74047E+12,1.74047E+12,{},659
2025-02-25 13:36:28.519000+05:30,1.74047E+12,1.74047E+12,{},0
2025-02-25 13:36:28.369000+05:30,1.74047E+12,1.74047E+12,{},579
2025-02-25 13:36:28.219000+05:30,1.74047E+12,1.74047E+12,{},0
2025-02-25 13:36:28.069000+05:30,1.74047E+12,1.74047E+12,{},511
2025-02-25 13:36:28.058000+05:30,1.74047E+12,1.74047E+12,{},0
2025-02-25 13:36:27.908000+05:30,1.74047E+12,1.74047E+12,{},483
2025-02-25 13:36:27.758000+05:30,1.74047E+12,1.74047E+12,{},0
2025-02-25 13:36:27.608000+05:30,1.74047E+12,1.74047E+12,{},612
2025-02-25 13:36:27.597000+05:30,1.74047E+12,1.74047E+12,{},0
2025-02-25 13:36:27.447000+05:30,1.74047E+12,1.74047E+12,{},496
2025-02-25 13:36:27.297000+05:30,1.74047E+12,1.74047E+12,{},0
2025-02-25 13:36:27.147000+05:30,1.74047E+12,1.74047E+12,{},547
2025-02-25 13:36:27.136000+05:30,1.74047E+12,1.74047E+12,{},0
2025-02-25 13:36:26.986000+05:30,1.74047E+12,1.74047E+12,{},473
2025-02-25 13:36:26.836000+05:30,1.74047E+12,1.74047E+12,{},0
2025-02-25 13:36:26.686000+05:30,1.74047E+12,1.74047E+12,{},534
2025-02-25 13:36:26.675000+05:30,1.74047E+12,1.74047E+12,{},0
2025-02-25 13:36:26.525000+05:30,1.74047E+12,1.74047E+12,{},428
2025-02-25 13:36:26.375000+05:30,1.74047E+12,1.74047E+12,{},0
2025-02-25 13:36:26.225000+05:30,1.74047E+12,1.74047E+12,{},551
2025-02-25 13:36:26.214000+05:30,1.74047E+12,1.74047E+12,{},0
2025-02-25 13:36:26.064000+05:30,1.74047E+12,1.74047E+12,{},485
2025-02-25 13:36:25.914000+05:30,1.74047E+12,1.74047E+12,{},0
2025-02-25 13:36:25.764000+05:30,1.74047E+12,1.74047E+12,{},454
2025-02-25 13:36:25.753000+05:30,1.74047E+12,1.74047E+12,{},0
2025-02-25 13:36:25.603000+05:30,1.74047E+12,1.74047E+12,{},355
2025-02-25 13:36:25.453000+05:30,1.74047E+12,1.74047E+12,{},0
2025-02-25 13:36:25.303000+05:30,1.74047E+12,1.74047E+12,{},576
2025-02-25 13:36:25.292000+05:30,1.74047E+12,1.74047E+12,{},0
2025-02-25 13:36:25.142000+05:30,1.74047E+12,1.74047E+12,{},394
2025-02-25 13:36:24.992000+05:30,1.74047E+12,1.74047E+12,{},0
2025-02-25 13:36:24.842000+05:30,1.74047E+12,1.74047E+12,{},454
2025-02-25 13:36:24.831000+05:30,1.74047E+12,1.74047E+12,{},0
2025-02-25 13:36:24.681000+05:30,1.74047E+12,1.74047E+12,{},342
2025-02-25 13:36:24.531000+05:30,1.74047E+12,1.74047E+12,{},0
2025-02-25 13:36:24.381000+05:30,1.74047E+12,1.74047E+12,{},469
2025-02-25 13:36:24.370000+05:30,1.74047E+12,1.74047E+12,{},0
2025-02-25 13:36:24.220000+05:30,1.74047E+12,1.74047E+12,{},307
2025-02-25 13:36:24.070000+05:30,1.74047E+12,1.74047E+12,{},0
2025-02-25 13:36:23.920000+05:30,1.74047E+12,1.74047E+12,{},444
2025-02-25 13:36:23.909000+05:30,1.74047E+12,1.74047E+12,{},0
2025-02-25 13:36:23.759000+05:30,1.74047E+12,1.74047E+12,{},296
2025-02-25 13:36:23.609000+05:30,1.74047E+12,1.74047E+12,{},0
2025-02-25 13:36:23.459000+05:30,1.74047E+12,1.74047E+12,{},401
2025-02-25 13:36:23.448000+05:30,1.74047E+12,1.74047E+12,{},0
2025-02-25 13:36:23.298000+05:30,1.74047E+12,1.74047E+12,{},204
2025-02-25 13:36:23.148000+05:30,1.74047E+12,1.74047E+12,{},0
2025-02-25 13:36:22.998000+05:30,1.74047E+12,1.74047E+12,{},435
2025-02-25 13:36:22.987000+05:30,1.74047E+12,1.74047E+12,{},0
2025-02-25 13:36:22.837000+05:30,1.74047E+12,1.74047E+12,{},279
2025-02-25 13:36:22.687000+05:30,1.74047E+12,1.74047E+12,{},0
2025-02-25 13:36:22.537000+05:30,1.74047E+12,1.74047E+12,{},295
2025-02-25 13:36:22.526000+05:30,1.74047E+12,1.74047E+12,{},1
2025-02-25 13:36:22.376000+05:30,1.74047E+12,1.74047E+12,{},175
2025-02-25 13:36:22.226000+05:30,1.74047E+12,1.74047E+12,{},0
2025-02-25 13:36:22.076000+05:30,1.74047E+12,1.74047E+12,{},351
2025-02-25 13:36:22.065000+05:30,1.74047E+12,1.74047E+12,{},0
2025-02-25 13:36:21.915000+05:30,1.74047E+12,1.74047E+12,{},178
2025-02-25 13:36:21.765000+05:30,1.74047E+12,1.74047E+12,{},0
2025-02-25 13:36:21.615000+05:30,1.74047E+12,1.74047E+12,{},294
2025-02-25 13:36:21.604000+05:30,1.74047E+12,1.74047E+12,{},68
2025-02-25 13:36:21.454000+05:30,1.74047E+12,1.74047E+12,{},151
2025-02-25 13:36:21.304000+05:30,1.74047E+12,1.74047E+12,{},0
2025-02-25 13:36:21.154000+05:30,1.74047E+12,1.74047E+12,{},273
2025-02-25 13:36:21.143000+05:30,1.74047E+12,1.74047E+12,{},27
2025-02-25 13:36:20.993000+05:30,1.74047E+12,1.74047E+12,{},130
2025-02-25 13:36:20.843000+05:30,1.74047E+12,1.74047E+12,{},0
2025-02-25 13:36:20.693000+05:30,1.74047E+12,1.74047E+12,{},240
2025-02-25 13:36:20.682000+05:30,1.74047E+12,1.74047E+12,{},67
2025-02-25 13:36:20.532000+05:30,1.74047E+12,1.74047E+12,{},143
2025-02-25 13:36:20.382000+05:30,1.74047E+12,1.74047E+12,{},10
2025-02-25 13:36:20.232000+05:30,1.74047E+12,1.74047E+12,{},176
2025-02-25 13:36:20.221000+05:30,1.74047E+12,1.74047E+12,{},210
2025-02-25 13:36:20.071000+05:30,1.74047E+12,1.74047E+12,{},54
2025-02-25 13:36:19.921000+05:30,1.74047E+12,1.74047E+12,{},0
2025-02-25 13:36:19.771000+05:30,1.74047E+12,1.74047E+12,{},248
2025-02-25 13:36:19.760000+05:30,1.74047E+12,1.74047E+12,{},94
2025-02-25 13:36:19.610000+05:30,1.74047E+12,1.74047E+12,{},85
2025-02-25 13:36:19.460000+05:30,1.74047E+12,1.74047E+12,{},130
2025-02-25 13:36:19.310000+05:30,1.74047E+12,1.74047E+12,{},137
2025-02-25 13:36:19.299000+05:30,1.74047E+12,1.74047E+12,{},272
2025-02-25 13:36:19.149000+05:30,1.74047E+12,1.74047E+12,{},39
2025-02-25 13:36:18.999000+05:30,1.74047E+12,1.74047E+12,{},75
2025-02-25 13:36:18.849000+05:30,1.74047E+12,1.74047E+12,{},85
2025-02-25 13:36:18.838000+05:30,1.74047E+12,1.74047E+12,{},478
2025-02-25 13:36:18.688000+05:30,1.74047E+12,1.74047E+12,{},0
2025-02-25 13:36:18.538000+05:30,1.74047E+12,1.74047E+12,{},529
2025-02-25 13:36:18.388000+05:30,1.74047E+12,1.74047E+12,{},60
2025-02-25 13:36:18.377000+05:30,1.74047E+12,1.74047E+12,{},652
2025-02-25 13:36:18.227000+05:30,1.74047E+12,1.74047E+12,{},0
2025-02-25 13:36:18.077000+05:30,1.74047E+12,1.74047E+12,{},464
2025-02-25 13:36:17.927000+05:30,1.74047E+12,1.74047E+12,{},48
2025-02-25 13:36:17.916000+05:30,1.74047E+12,1.74047E+12,{},654
2025-02-25 13:36:17.766000+05:30,1.74047E+12,1.74047E+12,{},0
2025-02-25 13:36:17.616000+05:30,1.74047E+12,1.74047E+12,{},529
2025-02-25 13:36:17.466000+05:30,1.74047E+12,1.74047E+12,{},39
2025-02-25 13:36:17.455000+05:30,1.74047E+12,1.74047E+12,{},602
2025-02-25 13:36:17.305000+05:30,1.74047E+12,1.74047E+12,{},0
2025-02-25 13:36:17.155000+05:30,1.74047E+12,1.74047E+12,{},631
2025-02-25 13:36:17.005000+05:30,1.74047E+12,1.74047E+12,{},0
2025-02-25 13:36:16.994000+05:30,1.74047E+12,1.74047E+12,{},784
2025-02-25 13:36:16.844000+05:30,1.74047E+12,1.74047E+12,{},0
2025-02-25 13:36:16.694000+05:30,1.74047E+12,1.74047E+12,{},509
2025-02-25 13:36:16.544000+05:30,1.74047E+12,1.74047E+12,{},0
2025-02-25 13:36:16.533000+05:30,1.74047E+12,1.74047E+12,{},656
2025-02-25 13:36:16.383000+05:30,1.74047E+12,1.74047E+12,{},0
2025-02-25 13:36:16.233000+05:30,1.74047E+12,1.74047E+12,{},723
2025-02-25 13:36:16.083000+05:30,1.74047E+12,1.74047E+12,{},0
2025-02-25 13:36:16.072000+05:30,1.74047E+12,1.74047E+12,{},848
2025-02-25 13:36:15.922000+05:30,1.74047E+12,1.74047E+12,{},0
2025-02-25 13:36:15.772000+05:30,1.74047E+12,1.74047E+12,{},615
2025-02-25 13:36:15.622000+05:30,1.74047E+12,1.74047E+12,{},0
2025-02-25 13:36:15.611000+05:30,1.74047E+12,1.74047E+12,{},758
2025-02-25 13:36:15.461000+05:30,1.74047E+12,1.74047E+12,{},0
2025-02-25 13:36:15.311000+05:30,1.74047E+12,1.74047E+12,{},770
2025-02-25 13:36:15.161000+05:30,1.74047E+12,1.74047E+12,{},0
2025-02-25 13:36:15.150000+05:30,1.74047E+12,1.74047E+12,{},787
2025-02-25 13:36:15+05:30,1.74047E+12,1.74047E+12,{},0
2025-02-25 13:36:14.850000+05:30,1.74047E+12,1.74047E+12,{},751
2025-02-25 13:36:14.700000+05:30,1.74047E+12,1.74047E+12,{},0
2025-02-25 13:36:14.689000+05:30,1.74047E+12,1.74047E+12,{},834
2025-02-25 13:36:14.539000+05:30,1.74047E+12,1.74047E+12,{},0
2025-02-25 13:36:14.389000+05:30,1.74047E+12,1.74047E+12,{},741
2025-02-25 13:36:14.239000+05:30,1.74047E+12,1.74047E+12,{},0
2025-02-25 13:36:14.228000+05:30,1.74047E+12,1.74047E+12,{},745
2025-02-25 13:36:14.078000+05:30,1.74047E+12,1.74047E+12,{},0
2025-02-25 13:36:13.928000+05:30,1.74047E+12,1.74047E+12,{},852
2025-02-25 13:36:13.778000+05:30,1.74047E+12,1.74047E+12,{},0
2025-02-25 13:36:13.767000+05:30,1.74047E+12,1.74047E+12,{},894
2025-02-25 13:36:13.617000+05:30,1.74047E+12,1.74047E+12,{},0
2025-02-25 13:36:13.467000+05:30,1.74047E+12,1.74047E+12,{},723
2025-02-25 13:36:13.317000+05:30,1.74047E+12,1.74047E+12,{},0
2025-02-25 13:36:13.306000+05:30,1.74047E+12,1.74047E+12,{},758
2025-02-25 13:36:13.156000+05:30,1.74047E+12,1.74047E+12,{},0
2025-02-25 13:36:13.006000+05:30,1.74047E+12,1.74047E+12,{},877
2025-02-25 13:36:12.856000+05:30,1.74047E+12,1.74047E+12,{},0
2025-02-25 13:36:12.845000+05:30,1.74047E+12,1.74047E+12,{},865
2025-02-25 13:36:12.695000+05:30,1.74047E+12,1.74047E+12,{},0
2025-02-25 13:36:12.545000+05:30,1.74047E+12,1.74047E+12,{},567
2025-02-25 13:36:12.395000+05:30,1.74047E+12,1.74047E+12,{},0
2025-02-25 13:36:12.384000+05:30,1.74047E+12,1.74047E+12,{},630
2025-02-25 13:36:12.234000+05:30,1.74047E+12,1.74047E+12,{},0
2025-02-25 13:36:12.084000+05:30,1.74047E+12,1.74047E+12,{},604
2025-02-25 13:36:11.934000+05:30,1.74047E+12,1.74047E+12,{},0
2025-02-25 13:36:11.923000+05:30,1.74047E+12,1.74047E+12,{},621
2025-02-25 13:36:11.773000+05:30,1.74047E+12,1.74047E+12,{},0
2025-02-25 13:36:11.623000+05:30,1.74047E+12,1.74047E+12,{},676
2025-02-25 13:36:11.473000+05:30,1.74047E+12,1.74047E+12,{},0
2025-02-25 13:36:11.462000+05:30,1.74047E+12,1.74047E+12,{},773
2025-02-25 13:36:11.312000+05:30,1.74047E+12,1.74047E+12,{},0
2025-02-25 13:36:11.162000+05:30,1.74047E+12,1.74047E+12,{},653
2025-02-25 13:36:11.012000+05:30,1.74047E+12,1.74047E+12,{},0
2025-02-25 13:36:11.001000+05:30,1.74047E+12,1.74047E+12,{},625
